9.871417748792410407e-04
9.302192773417150562e-04
8.452469328700251694e-04
9.931685766130238235e-04
9.155895427309657109e-04
8.646285954121424311e-04
8.074418331567301266e-04
8.974711116691569401e-04
8.860081198894809162e-04
9.737621711529698132e-04
8.835268283705621783e-04
8.199900667743564853e-04
8.284052747868919653e-04
9.664602926874321653e-04
9.031986126722957309e-04
8.799114122511886293e-04
9.699173288107987290e-04
8.090200612529407920e-04
9.940927629307205748e-04
9.619568429393154929e-04
9.468377119291604416e-04
9.974922668298802364e-04
9.683493646310825653e-04
9.302177400618560910e-04
9.875903209132230742e-04
8.991650371058534930e-04
9.768402222608552066e-04
9.192744292011445495e-04
9.525518318770354043e-04
8.790116624296517855e-04
7.043424450584589991e-04
9.417980472625764321e-04
9.735584531281871179e-04
8.522121038924135306e-04
9.657396168966103644e-04
8.954173636370743594e-04
7.780509710657579348e-04
9.979620688914669913e-04
9.427940864338291149e-04
8.845011776644762236e-04
9.370494642704230159e-04
8.155845236910153062e-04
9.230977573152499005e-04
9.815222886961905147e-04
8.145328250287464655e-04
8.048499151842580801e-04
9.440417101771458874e-04
9.075660171055099923e-04
9.693720115542259208e-04
9.646754174877925081e-04
9.180975782033806709e-04
7.380375573530217892e-04
9.948622092446068876e-04
9.653629472791136479e-04
8.533773997060345451e-04
9.548342396282771816e-04
9.219618180914546102e-04
9.137065181081815979e-04
9.634292224035556629e-04
9.945554064536565875e-04
9.754063072133778434e-04
8.298872806428159166e-04
8.187502288042880494e-04
8.369552430936844090e-04
9.920988908254102512e-04
9.745152075150143034e-04
9.050255198918000232e-04
8.894741618679091744e-04
7.230940527636064985e-04
7.713905693635947358e-04
9.903743683060683978e-04
8.852388962941049044e-04
9.151079385533167354e-04
9.617457262206530189e-04
9.763514840958054108e-04
8.959778304246102110e-04
8.730633149014455086e-04
9.145237448483500842e-04
9.062956504642949440e-04
9.724952763834338043e-04
9.256321676542889065e-04
8.685112279527285040e-04
8.461510276142059084e-04
7.404843374507752429e-04
9.869550140211291733e-04
8.790926887456418370e-04
8.161043248915422765e-04
6.890831330628177653e-04
9.122247928531335148e-04
8.657355328608451472e-04
8.009390601173560498e-04
9.558645955942690620e-04
9.405565994442532940e-04
8.978821042791018670e-04
8.239372710406867029e-04
8.398226258063967720e-04
8.941205640335958549e-04
7.822855027862507526e-04
8.192076028560313361e-04
9.172253479453607028e-04
8.354832551491497838e-04
9.650617004387518350e-04
9.665772534491745560e-04
9.952003677728971098e-04
8.148794107478707360e-04
9.664707596328536710e-04
9.894810848994906038e-04
9.923808952250201543e-04
8.753511779004963245e-04
7.775192320755852649e-04
9.690790070151500402e-04
9.402839183701994230e-04
8.749111720338653697e-04
8.273122703660318322e-04
7.474518511598748916e-04
8.357721454856914534e-04
8.480703141257039945e-04
9.425608351589787048e-04
8.943620137973340434e-04
9.384431716957797320e-04
9.443573154492845845e-04
9.227812460860240762e-04
9.215810524786371971e-04
9.891998370176180444e-04
8.973308812574298798e-04
8.782272712974936724e-04
9.967894244363728617e-04
9.232787366266759221e-04
9.961516360873501341e-04
9.614780498466979353e-04
9.856131941967660737e-04
9.384134355879814038e-04
8.172138276947293889e-04
9.960251267469022451e-04
7.462092407468645661e-04
8.202440802420607469e-04
9.018891853077581899e-04
8.475314996483351848e-04
7.928222139010898672e-04
7.971283808819729089e-04
9.559911931394937668e-04
9.157586603272593884e-03
8.339848257643556195e-04
9.914805416048055875e-04
8.781313667818313462e-04
8.066640323829421533e-04
9.536832789369675822e-04
8.993773447347752636e-04
8.774338720923813284e-04
7.775366287037233093e-04
9.995213426680082947e-04
9.135914212972107151e-04
8.469706327930426326e-04
9.911880027158037620e-04
8.181625541175963079e-04
9.999106631080056928e-04
9.770728721022470253e-04
9.150180861234868956e-04
9.465851428915872390e-04
9.916497759419051761e-04
9.068879479969815804e-04
9.054256159926055147e-04
9.235728943564058824e-04
8.429755702312746735e-04
9.646584250311285302e-04
8.644817065499577069e-04
8.000262650280642873e-04
9.401031485217758998e-04
6.656825276906142008e-04
9.742381331178107118e-04
8.848699289881745145e-04
9.687017586185175944e-04
9.821393861939586856e-04
9.620990962950770609e-04
9.347881291382753588e-04
2.922829775615642944e-03
9.103538457579940513e-04
8.834542825424396284e-04
8.583953610429295722e-04
9.677749911093380675e-04
9.524826390716611968e-04
9.749552570789132844e-04
8.434988733100334812e-04
8.863035148860554102e-04
8.611029566538697111e-04
7.321398257599254222e-04
7.763541479254287836e-04
8.216250927502999346e-04
7.589868176901548580e-04
8.544900741694894108e-04
8.980562641252021194e-04
9.554623674724593840e-04
9.596338257271685990e-04
9.989604472774304966e-04
9.220013034486607140e-04
9.250435724377226165e-04
8.993924150495491432e-04
9.508722030130423164e-04
9.054716627872050339e-04
9.474846346603227332e-04
8.985791427918998764e-04
9.641861021029152212e-04
8.084017177687474742e-04
9.816894226712946647e-04
9.446093921622322753e-04
9.383145002119785971e-04
9.918214910691336428e-04
8.875862728779937427e-04
9.363327254175990433e-04
9.454206632696360302e-04
8.650601324440287954e-04
4.630172334408877433e-04
6.655316757312457199e-04
8.509948455001081769e-04
9.998842248513106767e-04
9.895536276545158216e-04
9.045128075777508769e-04
9.957451947218975974e-04
9.605922773900932299e-04
8.559496488066420383e-04
9.934916326919118745e-04
8.736953957134696580e-04
7.547311828359770658e-04
9.886198364120746263e-04
8.054021601929806096e-04
5.314354215991690111e-04
9.855561366011178492e-04
9.500283558683264573e-04
7.574002212364927544e-04
9.256271405533311736e-04
8.973971055575846734e-04
9.512107146010251313e-04
7.393474334111971302e-04
8.333710239135649900e-04
7.570848749143266332e-04
9.539388587794794816e-04
9.056505844942108752e-04
9.785840560166958468e-04
8.547391500994816482e-04
8.717357526495383979e-04
1.612100099367963502e-03
9.285437150510222892e-04
9.236550258333586783e-04
9.768772041327533628e-04
9.308939395720194909e-04
8.946399561802209632e-04
9.052622993349634939e-04
8.465051009303170559e-04
8.565558638936598967e-04
9.578862858993231200e-04
9.743231026102527892e-04
5.488968192393084422e-04
6.885322419517558856e-04
9.288254912708238109e-04
9.561314119050923210e-04
8.670862234293474913e-04
5.903671242916130879e-04
9.929809409678913568e-04
8.542613608628624178e-04
8.836285000157761971e-04
9.947758831734265783e-04
9.943671874746984329e-04
9.371042928160155938e-04
9.915874833137383604e-04
9.104644263380201608e-04
9.906742994538753067e-04
1.290270483103372889e-03
1.019872383511088998e-03
9.807956808752793521e-04
9.262763710502497361e-04
9.835356957932361865e-04
9.616450229730233445e-04
9.967903598064875581e-04
9.112027637510067279e-04
9.530266205758364251e-04
8.501491269411465268e-04
9.367799435980872502e-04
9.827946023859279734e-04
9.593585330296416913e-04
8.343261968133397488e-04
9.423727138722082231e-04
9.643591374531856886e-04
9.338799308072909255e-04
9.466416979323488690e-04
9.194392021081299049e-04
9.205580226669951571e-04
8.717346058387809293e-04
9.768382966819366686e-04
9.495953316864813587e-04
9.292563972648215653e-04
8.206726881490045145e-04
9.853160703978680601e-04
9.780506408830769161e-04
9.465944510040902315e-04
8.390610381616703251e-04
3.369411482519901746e-03
2.296176579008823992e-03
6.818583387152576947e-04
9.868932039186484317e-04
8.723219863823183928e-04
9.610225047682607880e-04
9.643939249615041120e-04
1.422721324987108460e-03
9.300242092344923606e-04
8.824442350462424756e-04
7.912517649828476607e-04
8.920828684294557220e-04
9.698969137154067610e-04
9.579575149827324054e-04
8.885111630959618978e-04
9.847783619233441144e-04
7.505477730560539129e-04
8.835678807465052742e-04
9.112402835358413000e-04
6.548839383948568127e-04
9.977451022810113201e-04
9.457776873073031609e-04
9.141516612929390107e-04
8.593682670591240580e-04
9.005691478097821445e-04
7.242428047603555186e-04
9.636575960738635871e-04
8.877825624985513642e-04
8.365144474039576394e-04
9.956184938249013072e-04
9.252668314584377995e-04
9.990072386282244921e-04
8.876355459749296628e-04
9.190453558064470840e-04
9.063643938530541178e-04
9.546053629535533602e-04
8.018163958641855160e-04
7.433533080074550270e-04
9.679849998374123743e-04
9.785825254712277044e-04
9.027185551664373975e-04
8.902481686230423463e-04
9.450280566980495678e-04
9.918670272104357366e-04
9.913509020266220162e-04
8.772067050260012877e-04
9.988245016783192654e-04
9.605467224347297162e-04
5.951575743348147540e-04
9.545079625083996433e-04
9.420226532748099402e-04
9.824975098930988082e-04
8.125659517344008265e-04
8.720125915085974455e-04
9.743981896511710872e-04
9.694879288771884873e-04
9.701927064407200874e-04
8.427538686790470024e-04
8.706877384506706008e-04
7.454827857242829481e-04
9.836391784416864681e-04
8.294843852088007452e-04
9.837176259811508672e-04
9.878039961199736041e-04
9.387219675347502346e-04
9.781212564061725345e-04
9.231166828227443943e-04
9.759562085128736797e-04
8.950889069642142815e-04
9.428063205410008862e-04
9.623794797871676465e-04
1.945823069303020958e-03
9.247245379155888401e-04
8.003467153117060917e-04
9.181938345805829016e-04
9.421323084762844857e-04
8.724361954932646768e-04
8.158050680244777197e-04
9.928552900615450483e-04
9.635409280643880692e-04
9.011343624314438472e-04
9.773923496099179431e-04
9.089331851658277728e-04
9.165533501315215048e-04
9.110614647190873328e-04
8.214917564586254883e-04
8.761175508770202569e-04
9.683090980013853155e-04
9.334158130890335414e-04
9.988387674845222719e-04
8.250992040775839698e-04
9.602758791923404758e-04
8.477591701493425447e-04
9.716135057933339425e-04
9.961347089727512483e-04
9.790456135739811216e-04
9.264778539549434200e-04
9.028620044573276715e-04
7.509743061485663063e-04
8.473950427793086604e-04
8.309616038815192951e-04
9.931598571073507742e-04
9.965855557837466350e-04
1.871807953404136526e-03
8.973248678798562139e-04
9.939640481223532831e-04
9.939696021373789492e-04
9.219574892087578633e-04
9.960383791715043955e-04
8.958370993012998440e-04
9.262888511611944153e-04
7.317670893155492351e-04
9.467197197640109252e-04
9.979433639574208925e-04
8.983270335759518943e-04
9.759325457245893176e-04
6.938153525823942402e-04
9.794381323755541047e-04
7.407729699085985331e-04
7.645968976688344299e-04
9.202169820871075601e-04
9.255956366436279836e-04
9.037852002730106804e-04
9.422679711152959214e-04
8.086183322496554027e-04
9.931511817076188464e-04
9.068776523225574593e-04
9.786265930511461875e-04
9.759267457607467833e-04
9.316512552641764700e-04
8.853804471491422134e-04
9.668376794459421220e-04
9.887775902036599618e-04
8.902035259542584456e-04
1.813926789963282715e-03
8.979273953744204562e-04
9.786867328895887397e-04
8.567304523702246044e-04
9.898289687694239447e-04
9.192214121057640241e-04
7.976819290341774504e-04
8.244212677909201759e-04
8.338387930785229329e-04
7.401264114439420894e-04
9.322057294646191039e-04
9.193194471250887290e-04
9.088612196436196555e-04
9.461477554902897324e-04
9.483942514095788923e-04
8.383140382951514979e-04
8.733790494214188627e-04
9.674884339108125175e-04
8.520355536950630082e-04
9.974206150106246227e-04
8.680806106147187506e-04
9.428157937747538853e-04
8.929068265645101476e-04
8.589687295378345411e-04
9.723422321065156027e-04
8.894283488961596262e-04
8.322927889546916091e-04
9.584001732887426073e-04
9.337230556346609589e-04
8.108035921873257834e-04
7.777177028791548707e-04
9.299950426839842521e-04
9.166283149556475607e-04
9.169127403905186213e-04
1.828912911379321216e-03
9.832424393088068371e-04
9.436524626141862271e-04
9.503135847407362391e-04
9.580657636159006785e-04
9.552293326440253196e-04
9.952082592386002347e-04
9.918997342386326466e-04
9.941007065003004683e-04
9.551946924449827847e-04
8.615723186782275889e-04
9.624152966420940203e-04
9.592978696272291828e-04
9.186039727833161805e-04
6.384478333496534930e-04
9.159295911475018315e-04
8.725686017850842191e-04
9.640241065047572278e-04
8.062355955383848638e-04
8.728314214224708323e-04
8.781202056558079505e-04
8.300048038371032888e-04
9.635691000015045304e-04
9.487669521626163061e-04
9.497004635850014864e-04
9.285006500168169197e-04
9.473725422156631382e-04
9.492044327983339969e-04
9.921531564973662398e-04
9.405147899343990758e-04
9.554574925353387371e-04
8.580740572862177729e-04
9.565603540098166491e-04
7.237825107091477861e-04
8.448308180944996693e-04
9.136328087305800594e-04
9.183168551147868897e-04
9.031784708576351406e-04
9.952835776860791128e-04
9.339196649983394494e-04
8.829963612146940477e-04
9.972293502926721231e-04
9.079983326348850525e-04
8.535710642804117398e-04
9.279651868661087377e-04
7.422485972806702748e-04
8.620042443837627744e-04
9.460319167028385934e-04
8.935763470648838691e-04
8.775042357754836431e-04
6.018626098066581775e-04
8.773184249817322922e-04
7.406108183772852627e-04
8.067779401457197963e-04
1.324343467786204265e-03
8.525794122119512153e-04
9.915323429723343907e-04
9.601025565215692836e-04
9.866429275252608377e-04
9.547108979465201983e-04
1.139880500708456701e-03
6.989321649260027414e-04
8.430411362665424235e-04
9.173432356650579322e-04
8.457022434951166900e-04
8.482748047194954566e-04
1.655007379811279655e-03
7.658190312933577104e-04
9.248421390475325410e-04
9.699378003108494184e-04
9.868071104564002383e-04
9.569220716864057508e-04
9.769830554799963096e-04
9.260703135288705923e-04
8.496601660756830654e-04
9.670203813826327988e-04
8.030437157839909190e-04
8.921447081016165015e-04
9.482071476845099767e-04
9.952190504133318072e-04
8.412389137999465305e-04
6.774254478931762691e-04
8.576713406663882822e-04
9.458542677750481076e-04
8.077105456416600049e-04
9.745179100973944131e-04
9.725008078349528517e-04
8.312782649813055258e-04
9.472208954053318308e-04
9.740739035325463036e-04
8.251455436923960107e-04
7.875891761470743546e-04
9.693214380026571320e-04
9.269070227251319238e-04
9.690869155368764254e-04
9.016682157215738513e-04
1.414814655518292774e-03
9.790680985576338813e-04
9.938688487315383568e-04
9.292974525810793196e-04
8.799504263488078237e-04
8.414832081470313696e-04
7.428066330522620220e-04
1.946860449084208966e-03
9.537650387847484978e-04
7.046574452944653899e-04
9.502438141807401095e-04
9.715150626790070021e-04
9.515017963452887528e-04
8.108864140236038409e-04
9.468618029593312002e-04
9.676972343373169139e-04
9.644643508177619395e-04
1.329017429607559642e-03
9.260613780859294764e-04
7.937073138888361967e-04
9.074563774528199289e-04
9.681334416249409713e-04
9.676765160391287424e-04
7.463736519831565275e-04
9.729945653719207499e-04
8.771313302544658796e-04
9.150399029730360567e-04
8.552302248153731412e-04
8.031281110735255524e-04
9.882946035196793488e-04
9.667668295960663016e-04
8.981399973713166673e-04
9.122279251694287439e-04
9.719958799770944680e-04
9.383944716737646630e-04
9.031323236279309441e-04
8.943221989898830770e-04
9.809242352133429321e-04
8.737416854996959970e-04
9.455052768722049805e-04
9.418863264248900080e-04
9.229479605916690588e-04
9.277228064255016449e-04
8.678406985309639055e-04
9.850711979122461770e-04
5.695555335439861366e-04
9.119299287910775931e-04
9.601778920856895994e-04
7.843455571565627338e-04
9.538498503941506002e-04
1.370084719719777411e-03
1.588831528874568022e-03
8.574640177382297779e-04
9.965115235095467483e-04
9.064080925492712382e-04
9.419713205710555926e-04
8.974580107502516668e-04
9.516406229981289044e-04
9.660950901424492088e-04
9.371501360702083616e-04
8.382924198835350893e-04
9.601258467984985501e-04
1.185618440525892936e-03
9.345304929464504085e-04
9.806760188926233468e-04
9.646040512316655935e-04
9.163295627484524530e-04
9.317908799385543617e-04
9.365267153342848871e-04
1.609666542769949693e-03
9.730904848934684992e-04
9.742863398405354758e-04
9.945395092193498598e-04
9.074264851133273524e-04
8.000693239501588394e-04
8.966186899173056446e-04
9.830349470250077104e-04
8.377784440770641439e-04
1.100232770377296276e-03
9.652720338196862926e-04
1.340973950601953568e-03
9.792772662025051034e-04
9.575207111093275714e-04
9.639781896940702310e-04
9.171907551931424152e-04
1.828290127619536243e-03
9.177154717853186483e-04
9.109823737285527301e-04
9.940550788490876144e-04
8.178454875572560567e-04
9.032101042777407329e-04
9.031284016699503425e-04
9.368011736816672652e-04
7.930048646347387375e-04
8.751875161518984925e-04
9.808099702186545699e-04
9.764606747243442797e-04
9.271257399716681391e-04
9.689834377017980671e-04
9.860444528315692736e-04
1.373546409360271170e-03
8.807923690334895639e-04
9.831655959384733023e-04
9.748348934390804743e-04
9.516932008633016693e-04
9.825275573596137235e-04
9.999782036606008617e-04
9.670527093357250692e-04
9.951412426500994002e-04
9.759450901030142234e-04
9.551295831806694281e-04
9.543558960092290988e-04
9.945566554766527290e-04
9.765703599291519765e-04
1.399290240409190034e-03
8.476621989639276933e-04
8.782973043143238456e-04
9.853778542390223549e-04
8.929179392719310826e-04
9.949355572588247654e-04
9.519182125727887467e-04
9.423384142067670055e-04
9.597676734379723129e-04
9.345908091391574857e-04
7.000915015908937278e-04
9.624124551704804631e-04
9.812213873560127197e-04
1.830976672089423829e-03
9.189645310208049978e-04
9.406124250149749955e-04
7.274160688410802322e-04
9.470938096604042400e-04
9.593891662998954573e-04
9.528347030641759474e-04
9.604139355390284294e-04
9.135551554951826247e-04
9.658331552734322756e-04
9.294977158865735944e-04
9.095996845986942247e-04
7.960450412769493056e-04
9.096169054676472854e-04
9.803734834495925199e-04
9.873017202450817820e-04
9.653677436073371254e-04
8.235195012242790824e-04
7.736099061366186191e-04
8.718495356725419754e-04
9.600178603285103307e-04
9.663153154926273913e-04
9.477988839863282777e-04
8.193866828685170134e-04
9.510159277066332351e-04
8.431374059639784591e-04
9.201199632615786328e-04
8.944256336705924681e-04
9.298179327255073900e-04
9.899744702961399412e-04
9.500938354040089351e-04
8.823746634639695330e-04
9.674388416067714047e-04
9.072068261218868557e-04
7.486188067626908804e-04
9.653281948773795307e-04
9.817550124959772972e-04
9.739491347372508656e-04
9.097673419398155659e-04
8.885258845369170544e-04
9.930784048974850009e-04
9.637603516223780531e-04
8.982959610852603305e-04
9.923288231790117209e-04
9.946663829605295604e-04
9.890543554801345394e-04
8.351331245461945940e-04
8.773467957884362178e-04
8.872955069328947175e-04
8.496270784631443362e-04
9.457736014994999607e-04
9.267242644260820228e-04
9.697234824194156388e-04
1.657201147658660112e-03
8.772091286081140638e-04
9.009515935132217379e-04
9.990870593803435895e-04
9.827960380852651667e-04
7.380012073403552364e-04
7.614001367236555851e-04
9.605386955968686635e-04
9.286916125239574882e-04
9.440168181822361504e-04
9.271936765883337372e-04
9.116407677258742126e-04
8.833828453180814222e-04
6.539372600373738464e-04
8.719404558311660836e-04
9.974017033088644624e-04
5.635005634364587124e-04
8.947901223765875045e-04
9.381008625078957053e-04
9.877664379361883462e-04
9.842299335237614244e-04
9.527751529849748380e-04
9.621132397282794457e-04
8.579118440301680693e-04
9.628856957583087350e-04
8.904250787185041816e-04
8.562051347873467222e-04
9.476847894206441580e-04
9.580890360041394160e-04
9.974418198125389878e-04
8.769190795135939354e-04
9.342070763137533262e-04
1.158647688365488371e-03
8.763611758904055193e-04
8.665680392562213896e-04
6.876793696196648042e-04
9.570090285639931693e-04
9.905009614386006689e-04
8.282579760232611221e-04
8.645635471143942041e-04
9.688998154437911126e-04
9.036694744120055134e-04
9.806371629507149024e-04
9.698231483636909900e-04
9.581652279526675642e-04
9.842074663256594746e-04
9.133348664307483489e-04
8.870624102498281260e-04
9.167704780537189180e-04
6.367596821690302278e-04
8.996414189145207629e-04
8.808113031755215871e-04
8.132841432303417051e-04
9.395182271497715121e-04
8.838344428383493323e-04
9.196539434083161879e-04
9.231710743082821580e-04
8.272281047788654362e-04
9.237360487214241189e-04
9.573216172783505229e-04
9.844894642955237529e-04
8.860447787770731054e-04
9.973819971489383818e-04
8.964850458824669133e-04
8.182072827428443773e-04
9.157182540032726692e-04
9.025443831086610302e-04
9.680770453321940749e-04
9.570412639967607049e-04
9.675489032884287965e-04
9.955178404599251962e-04
9.528200701688360752e-04
9.197119125623487434e-04
9.956177885281913831e-04
8.822273048210149682e-04
8.444574622281653120e-04
1.565221263201466151e-03
7.961738361661474528e-04
8.144026524711245330e-04
9.622167918359458838e-04
8.296609334639271083e-04
9.936972825713707991e-04
1.102422018920523605e-03
8.836853578527703590e-04
9.687886257639943821e-04
8.200491459252612358e-04
9.785515868563354758e-04
9.862134701333902242e-04
9.950047639530890109e-04
8.433914439573975130e-04
9.651579997311809933e-04
9.520446985422648112e-04
9.149059952036076027e-04
8.134585485809475713e-04
9.561333367212876411e-04
7.860940020977258413e-04
9.332381103972497982e-04
9.494644066432300633e-04
9.225143843382133113e-04
3.006671395145543713e-03
9.831665583674986664e-04
1.030229807265747866e-03
8.642067178259438265e-04
8.392156896823710355e-04
9.845693350096773599e-04
9.526297526064597676e-04
9.137159116615611865e-04
7.915642358448105043e-04
2.313331024972109518e-03
8.923543559807844971e-04
9.517288184354155689e-04
8.119847529872714631e-04
9.506230779429136746e-04
8.723534319988734964e-04
7.962114249544516298e-04
9.889598583819880773e-04
9.802713713102928494e-04
8.658445069599229882e-04
6.601357338735791558e-04
9.960414539680328971e-04
8.422229657223390120e-04
1.247435681724473611e-03
9.926725732432029048e-04
7.682003115665470006e-04
9.003837729256725098e-04
8.580370648322288574e-04
6.774728355755099685e-04
9.080257585573070500e-04
9.329252683649702504e-04
9.851716775423069450e-04
7.555388977174004594e-04
9.387852644345828779e-04
1.236075202909359128e-03
8.694125028191335147e-04
8.970231641873827044e-04
9.680220649602722105e-04
9.369759365842611487e-04
9.896465348216976210e-04
1.172063363694020310e-03
9.263243731832959682e-04
7.889334672452896768e-04
9.247107085309513863e-04
6.327284831371127183e-04
9.491876783761510339e-04
8.805193718618431475e-04
8.717934157160822650e-04
9.898969397571510953e-04
9.883491910825936699e-04
9.772685779735335032e-04
9.317626443559046123e-04
8.784461798583276249e-04
9.061508643913862571e-04
9.715837326308429667e-04
9.015843631965392291e-04
8.677951312004994477e-04
9.218659060020728546e-04
8.751976669609806692e-04
9.816511365814406531e-04
9.593382659472959872e-04
9.509335703340449086e-04
9.586215245729334811e-04
9.580830697837328103e-04
9.915674458047529782e-04
8.927342145738093038e-04
1.544661223025212138e-03
9.637191483451434948e-04
9.634918214295185024e-04
8.867842730425623543e-04
9.956238630812741519e-04
9.982125340125547197e-04
1.233271594894946865e-03
8.992893795185530337e-04
9.911698888203090974e-04
9.360133351002941637e-04
1.530607399033323546e-03
9.798775039523421881e-04
8.518246330234680030e-04
9.649723391776943160e-04
9.873331803033069676e-04
9.312293855836539791e-04
8.671081652494860847e-04
2.931315863911265751e-03
9.844421787307267024e-04
8.301088067318440622e-04
9.861049535924149012e-04
9.934558095421319734e-04
9.680085076739786132e-04
1.039152678229848803e-03
9.713824168313678342e-04
9.259170143185446733e-04
1.285073551522186719e-03
9.433406110057607208e-04
9.976057193984422256e-04
9.723193879667135775e-04
9.467854452841484303e-04
9.866849750687078924e-04
5.226065656626199818e-03
1.255657496687545560e-03
9.856819484541645693e-04
8.395887273225932645e-04
9.518913613122403916e-04
9.067991041556977549e-04
7.959456889480298614e-04
8.677064701374526123e-04
9.831945536683539544e-04
8.511521597428517438e-04
7.764469234500248618e-04
9.380865298966867272e-04
8.682942879241206668e-04
8.168399874315390718e-04
1.496599117917996047e-03
8.505928032209730816e-04
9.463469679888980579e-04
8.982673708457511452e-04
9.135951054518587355e-04
9.199371449257753852e-04
8.375309685813014937e-04
9.617572368600946220e-04
9.816326941649577975e-04
8.762971691405052610e-04
9.908290015134824102e-04
9.208873136851147834e-04
9.349220918388745361e-04
9.770608519048540330e-04
1.032430393239414101e-03
1.447030421922512744e-03
9.782838057266207699e-04
9.549188201152247757e-04
9.493771740048950747e-04
9.872920762403758488e-04
9.433859232327312938e-04
8.967879124600619534e-04
9.198600762894137972e-04
9.426850813606391100e-04
9.668613303671635961e-04
8.498041183548910027e-04
9.225846056366560077e-04
8.861626503606778726e-04
8.042943874546626404e-04
9.996959042569697473e-04
9.580723527765622194e-04
9.484946065340116306e-04
8.243317578852105143e-04
9.643521795871246027e-04
9.676427634094375563e-04
9.260841314043810613e-04
9.596576247463683984e-04
9.389736543112814360e-04
9.379603414918502580e-04
8.359456518184371632e-04
9.107737530910098300e-04
8.666126564527143472e-04
9.619391294440893247e-04
1.338577927381123800e-03
8.153173052758422301e-04
9.725154205354469283e-04
9.653057962790700941e-04
9.766290069628258408e-04
9.760862266370295970e-04
9.896691963865444919e-04
9.507310867046259162e-04
9.726525804174546153e-04
9.817400282743360407e-04
9.166351174927367396e-04
9.929667340089487482e-04
9.010004454393927276e-04
9.444928363852023168e-04
9.645044806834146556e-04
9.476882015958532079e-04
8.240454620491721727e-04
9.881286829145352613e-04
7.442028551842838624e-04
9.826921398391474938e-04
1.010014219946397951e-03
9.841048522584161518e-04
8.959201926872495392e-04
9.765280537248344217e-04
9.343702448183499598e-04
8.820808250361578118e-04
1.028302369277978023e-03
8.909320785426277922e-04
8.988069931903375220e-04
9.451505537201310148e-04
9.903867514238218206e-04
9.614965623566673614e-04
