8.820083859959471084e-04
9.567583534116907984e-04
9.514110363764149980e-04
9.694259338773880685e-04
9.883661783349761976e-04
8.928408074342364387e-04
9.748861861168522935e-04
8.493663900959180779e-04
9.829520377843126155e-04
9.083505648843637204e-04
8.455689774701236061e-04
9.118532689532665714e-04
8.539986613476102661e-04
9.289536062779824022e-04
9.418831246341685670e-04
5.544808025699232701e-04
9.909644192299671417e-04
9.121072416149456075e-04
8.988522130339848815e-04
9.500663563417610646e-04
9.781221228351011376e-04
8.035519207623131877e-04
7.967559283194036723e-04
8.332324566283633160e-04
8.324947397937432214e-04
8.802120675875935163e-04
9.447703542301288948e-04
9.377672635120237743e-04
9.028929190746382005e-04
8.621111938154069065e-04
8.801851294559792649e-04
5.973091074732428396e-04
8.760429721044182827e-04
9.108393205538023452e-04
5.586444343324004080e-04
8.186631801641031103e-04
8.185364922125293319e-04
9.202526770486496588e-04
9.458898830007056446e-04
9.532282365345423614e-04
9.656427892577035266e-04
9.996283697334407137e-04
9.882399081162507315e-04
9.992277815701333665e-04
9.596972967713668368e-04
9.849703479741789280e-04
9.905445087102782153e-04
8.251773267970996528e-04
9.838942536032346808e-04
7.969792364113104099e-04
9.815439886202703690e-04
9.751771088517546815e-04
8.165927111751791756e-04
8.077742398120424383e-04
9.381264006724787663e-04
8.501853383603430458e-04
8.189894943099185198e-04
7.893132296892257926e-04
8.427832797475165449e-04
9.609680779820717333e-04
8.265212031639546097e-04
9.920975602483173006e-04
8.638046123771170315e-04
9.170516612310164462e-04
8.535883332297933279e-04
9.023860872432454272e-04
9.019648662796919680e-04
8.034092947528659323e-04
9.554359173488125023e-04
9.282354743882503811e-04
9.980137702935154564e-04
9.616291549108257897e-04
9.736916790957783618e-04
9.458855699643331505e-04
5.248253513111533763e-04
7.643794370276735251e-04
8.084130227752339692e-04
9.449711066489285827e-04
9.020912455319773926e-04
9.686179562048424785e-04
8.927501473544596777e-04
9.664111765946836741e-04
9.861137415698717490e-04
9.983637410192480743e-04
8.804929438933628560e-04
9.805239998298409532e-04
9.923154312595494631e-04
6.390756024348132058e-04
7.810438096692573495e-04
8.584936497335604599e-04
9.629170974515544046e-04
8.829187794455739535e-04
9.974278050984830557e-04
9.558656703150258949e-04
9.952093501089942507e-04
8.761525044538309714e-04
9.203140945830412534e-04
8.861426969469787807e-04
8.825621103969449877e-04
8.553021402436522536e-04
9.342780447570975255e-04
9.597370042623287745e-04
9.652443372701879909e-04
8.986327503753832602e-04
8.435816233528514729e-04
9.488013593733635176e-04
9.812539148342791506e-04
9.624434934906167527e-04
5.908384770297869792e-04
9.817750935834368420e-04
9.981911902117168722e-04
8.979559546625770494e-04
7.570645891087357526e-04
8.175117146801413881e-04
9.958940348224754047e-04
9.530677704970846875e-04
8.046970266243347325e-04
9.688515754390225609e-04
8.801051493885214683e-04
8.269702223004937736e-04
9.808913126153617767e-04
7.968593509118937490e-04
9.886675285402102276e-04
8.661240227790800716e-04
9.602547719225196232e-04
7.979775270163802503e-04
9.029642428914907981e-04
9.615799324489415767e-04
8.882493164044102940e-04
9.761871729130344733e-04
9.584745181966392025e-04
9.257494926074860686e-04
9.130602657525521693e-04
8.138798052372830938e-04
9.647572237787560567e-04
8.630691905003873288e-04
9.446624210274201516e-04
9.784716231849843737e-04
9.402789813198753066e-04
9.367847149494012982e-04
7.938361676188554483e-04
9.935927301605307349e-04
9.524067587522999645e-04
9.392275132403815618e-04
8.778263483170123394e-04
9.532985117329806357e-04
8.264841270422262909e-04
9.023866861226359504e-04
9.734092265591964832e-04
9.683444619198455783e-04
9.897033326830007027e-04
9.301852953157441206e-04
5.366303755259815844e-04
8.782329649776876579e-04
9.296803939322639820e-04
6.307438568559087244e-04
7.485335083267097289e-04
8.353084085670481329e-04
7.101484872156227368e-04
6.255023027661454904e-04
7.860919354056861152e-04
5.537045779731020190e-04
9.345328222891691183e-04
8.219852043832576172e-04
9.457807131307838233e-04
9.676543969809880963e-04
9.993962323325833452e-04
8.587571722942222152e-04
8.620935206158364394e-04
9.334745732780813654e-04
9.824817223230697394e-04
8.036762415645215540e-04
6.357745633194245016e-04
7.112816452702341863e-04
9.891270537990548561e-04
7.141276842528299085e-04
9.937833567096321374e-04
8.333051478339736917e-04
7.640303012058646814e-04
7.224749514500583558e-04
8.889157663197755355e-04
9.604251992852974595e-04
8.090005553011980766e-04
9.849424044150456581e-04
8.203296722733011137e-04
8.508899601968877846e-04
8.556627949813933043e-04
7.981321844154898315e-04
8.346121316683552394e-04
9.217719769130106044e-04
9.238325301317296123e-04
9.686478722079616688e-04
9.473841705878172093e-04
9.718591249827657208e-04
9.692130679630484025e-04
7.583876539022371688e-04
9.963013992473346292e-04
8.565154550430609248e-04
9.355362003657941017e-04
7.853705199586391572e-04
9.627821822023596710e-04
9.989926050596453777e-04
9.169347672167704744e-04
8.801151503453619185e-04
5.735044873327321824e-04
6.601698884033391224e-04
9.986102728581913723e-04
8.276916409126755525e-04
8.580678428993238072e-04
7.732442936477790241e-04
5.956276596847942528e-04
6.340036500921408802e-04
9.073094575117179872e-04
9.443976168858059239e-04
9.990407242517207465e-04
8.937274986944299116e-04
8.550671686209376787e-04
8.781165142379698807e-04
8.119357732988552456e-04
9.796852286760859840e-04
9.685123078401192132e-04
8.652471919330384509e-04
9.308274839238128706e-04
9.939948092919648204e-04
8.864179022284313092e-04
8.457707299696082259e-04
7.960075250400544533e-04
8.691328691893263070e-04
9.508205932118318771e-04
4.924528970129404826e-04
7.386227667611766634e-04
9.493929686068547369e-04
8.999075476111562111e-04
9.563286849219032604e-04
9.819098321609542879e-04
9.887795507601548906e-04
7.788286542348421548e-04
8.637394313094626241e-04
9.201397922806719976e-04
9.718201720624319861e-04
8.070988685094926396e-04
9.670722153718447345e-04
9.545661156481477505e-04
8.529629789518766714e-04
6.290082320872247834e-04
8.486638394147316689e-04
7.556601509576266196e-04
9.356999832192958166e-04
9.867457444010518941e-04
8.602647964365273126e-04
8.221670451025175907e-04
8.653775346094683130e-04
8.536610938751909572e-04
8.253468463227386920e-04
9.959306603332107599e-04
9.086843537866595710e-04
8.515461575422378360e-04
9.321577405871916966e-04
9.138045294072583147e-04
8.933643228602461406e-04
9.960820574381745729e-04
9.635106035015272852e-04
9.398517010590357046e-04
8.773925616671895966e-04
6.707877592974087477e-04
5.682839419738350273e-04
9.550015963581959255e-04
9.718168952009831330e-04
7.820120571141453425e-04
9.793548504720694936e-04
7.596464343206932313e-04
8.683463166919702658e-04
7.000316413552365447e-04
6.347991865640612019e-04
7.650773030329904856e-04
8.171165529902157942e-04
9.985876670568494262e-04
9.934470623399471734e-04
9.024070764770408815e-04
9.774565022655501423e-04
8.510627377482649081e-04
8.275003308307882222e-04
7.917391041278865060e-04
8.046541194682843567e-04
7.858049947243594957e-04
7.863829335154060018e-04
7.973328845325422520e-04
8.007238806140293264e-04
9.139257106540732423e-04
9.504883100776018168e-04
8.663721909722976733e-04
9.356408154318485160e-04
9.180915883861828775e-04
9.193760798388295186e-04
9.473549854421836613e-04
4.971870340635398122e-04
5.184875257326915232e-04
7.226450329800293559e-04
9.295558632937961363e-04
7.468902490935791505e-04
1.417884054042306552e-03
9.443825927679672105e-04
9.071260733002350918e-04
7.980960945451753830e-04
6.846828422134576542e-04
8.145852740110148815e-04
9.585167369222657996e-04
7.650077903923468980e-04
9.916406104456543247e-04
8.393308799260479347e-04
9.816682262114850843e-04
9.757184817738018268e-04
9.891655635555496318e-04
9.671104375649219875e-04
8.785531949743186075e-04
8.433941854237847480e-04
8.659077004178339365e-04
8.138429306819849884e-04
8.329267347765290097e-04
7.861326817845126769e-04
9.872291093694363084e-04
8.735459934290368267e-04
7.956082712204937124e-04
9.403768119670141701e-04
9.603560158781832001e-04
9.736725111474386907e-04
8.966750737012807448e-04
9.747822542045536665e-04
8.278793732660050253e-04
9.141842487361273584e-04
9.720805302579904605e-04
8.915569721664740044e-04
8.702708875198972294e-04
8.808733754891440171e-04
7.475550710748235517e-04
7.620895638449365350e-04
9.117517289495280508e-04
8.702620022643658970e-04
7.794310021801420518e-04
2.337080467762153724e-03
7.697335386852577344e-04
8.442307035076979105e-04
9.935472728878069759e-04
9.259982723129889237e-04
8.621126084615848839e-04
8.847794553205057255e-04
9.890869327409124168e-04
8.363967370129676837e-04
8.369918966349976230e-04
8.557130208696195339e-04
8.200252173150568424e-04
9.840392711378820323e-04
9.248194995936653839e-04
8.668832862634978653e-04
8.200216919782565839e-04
9.880057744714454415e-04
9.211703494659273517e-04
7.572194389549036231e-04
8.812466961266585130e-04
8.408371190344876567e-04
6.340617834690309707e-04
9.720219973941013336e-04
9.611218642093799502e-04
7.931515350830808941e-04
9.177076457689281597e-04
6.676086559309624135e-04
9.198626204965920650e-04
8.485807060798489232e-04
7.199259921104594895e-04
9.034370152007920041e-04
9.386846209520349760e-04
9.095271601494703262e-04
7.061090994336938209e-04
9.504782537680389609e-04
9.777451187983343672e-04
9.997167030603160143e-04
9.694500932936334081e-04
9.349129101597908331e-04
9.177047166515350796e-04
9.415042787572769356e-04
9.490163227886538877e-04
9.872355517859254803e-04
9.900645043562361636e-04
7.716882135347935545e-04
9.662926003990435220e-04
9.002605764488746942e-04
8.380138814141346870e-04
9.685459535400120501e-04
8.876335443783744950e-04
8.049581178806164417e-04
7.710967714686933761e-04
8.602785816802516194e-04
8.279096283487774599e-04
9.226948091468623048e-04
9.493881157971451046e-04
9.113132165523563089e-04
7.859677573837098308e-04
9.355566415294447324e-04
7.268959252380025049e-04
8.329334976867608376e-04
9.479002671846092909e-04
7.927632866704392711e-04
9.169922772149785573e-04
5.611436022979754412e-04
6.844686077446260342e-04
8.882786102133444217e-04
8.964439787411127014e-04
9.683535740730997432e-04
9.711379589800728240e-04
8.767945752305994489e-04
8.947289808942660017e-04
9.626198892860315937e-04
9.883670906885022589e-04
5.645510329689296114e-04
7.738184052165086868e-04
8.133342328441317548e-04
9.392940544608041620e-04
8.259934098763244137e-04
9.851546589959569999e-04
9.934642706707075277e-04
8.726709984410163656e-04
9.810212306068377686e-04
9.226318878937656009e-04
8.920969306217552131e-04
6.900332406198916857e-04
7.676943290416682331e-04
9.877990597718655508e-04
8.029720722702027302e-04
4.178835232018229817e-04
7.825750270376019557e-04
9.855627611166095647e-04
7.826380165254498422e-04
7.740404326253003120e-04
8.971704852109851913e-04
6.646688655169707971e-04
7.233569635629599759e-04
9.065086843965675101e-04
9.463901586395095933e-04
9.597852945082419041e-04
9.893238216123201312e-04
7.256684037793004194e-04
9.023002484384035071e-04
9.750110133033285109e-04
9.547623986124742501e-04
9.126571346307343902e-04
9.216248426558992790e-04
9.905719637320897775e-04
9.665524049404794482e-04
9.820092102164057479e-04
9.708352422469479492e-04
9.367596798970367900e-04
8.799770327024836192e-04
7.751457492711777419e-04
7.733742547706423665e-04
9.548775751817561996e-04
9.699601279659075814e-04
5.661869425621635088e-04
9.950875214398413604e-04
8.492360206027171898e-04
6.572389019208202399e-04
6.044332443301270175e-04
9.879801644452346210e-04
9.610331338016919744e-04
6.809118053893170597e-04
9.491227481294162160e-04
9.858002653395647741e-04
9.692650708387207104e-04
9.446463248048431183e-04
8.146612563929567230e-04
7.515477493806876907e-04
8.797404051030799366e-04
9.154211424866609548e-04
2.813544226669684178e-04
9.235393573618910779e-04
9.717165133177330105e-04
8.929637585839422798e-04
8.956336272022413780e-04
8.921363750917787883e-04
9.376381047641046962e-04
9.898239451389123644e-04
9.645281722305831806e-04
8.260720323474135540e-04
9.637894013894143797e-04
9.078445593274642178e-04
9.852381565262913199e-04
8.738277448940845460e-04
9.888144827790990021e-04
9.316639485124067477e-04
8.476115704537656725e-04
8.088526115517247206e-04
9.418065316100232565e-04
9.278529609405561374e-04
8.829901872799972296e-04
9.700510780586979465e-04
9.330333599553153334e-04
8.892091903124343943e-04
9.704443224791692302e-04
7.207344910762358836e-04
7.237687906822554140e-04
9.391164759463555001e-04
7.977653110443627682e-04
9.761252211236692844e-04
9.193990876043001137e-04
8.764920528950836953e-04
8.805522737340698569e-04
8.490650300919666549e-04
8.531746486010183261e-04
9.418570273513893198e-04
9.992005258075975505e-04
8.521833567116665620e-04
8.271791320916266343e-04
8.383720850528852964e-04
9.802564589149742602e-04
8.100506608931246078e-04
8.053615593128782280e-04
8.250902507070945191e-04
9.811173452130006467e-04
7.569108153594461541e-04
8.187284476746103934e-04
9.400737351542565179e-04
7.051960164219384097e-04
6.729275626929931420e-04
8.245001464409762448e-04
9.534540417378556398e-04
7.157492493887751550e-04
9.030162440182287753e-04
9.426086011167233991e-04
9.396489029385168834e-04
1.462791458699430613e-03
8.757354965523989065e-04
9.852420773606151982e-04
6.955663226887454087e-04
7.890818775846408784e-04
8.637891114977591656e-04
8.203978906442532804e-04
9.809774957280081864e-04
8.400045490898344624e-04
7.992754465454554591e-04
9.867726930132825203e-04
6.364645752771069809e-04
9.726754194571141099e-04
6.741975475232919734e-04
8.149366758254394938e-04
8.008427630936676422e-04
8.601474932290464892e-04
9.676922523345066196e-04
9.441039836034503807e-04
7.578852772592847842e-04
8.859722169547445958e-04
7.990763554747148945e-04
7.685645054210654692e-04
8.560492512607043025e-04
8.848078235484946319e-04
8.073869533209432348e-04
6.938815585847413203e-04
6.218404354002560197e-04
9.324859073509550456e-04
1.552757752663502799e-03
7.651985743690747910e-04
9.025138668633525540e-04
9.572466059759587864e-04
9.238783530644001374e-04
8.848968487200625788e-04
7.165538123486969724e-04
8.844738289999209968e-04
8.973329335452140398e-04
9.617081545718608737e-04
8.366703586849544294e-04
8.473014015070168270e-04
9.033350223845992844e-04
8.187512655595252653e-04
8.393428188530061007e-04
7.318803840440368802e-04
9.800135282804767201e-04
8.086038868504452637e-04
7.372200156597896736e-04
9.813330127723673968e-04
7.233494429984554941e-04
9.796209178999371048e-04
9.652229889622887526e-04
6.683372575015944506e-04
8.848448740772507648e-04
9.849093956515453385e-04
8.853037472054126056e-04
9.043370403917228018e-04
5.064083123069718084e-04
8.806344035424684691e-04
9.295102393787058048e-04
9.358184907966027311e-04
9.348958860611045196e-04
5.962892764510563381e-04
9.485478994976093148e-04
8.386850766523012979e-04
9.654261823350829275e-04
9.383860410266953167e-04
8.247937692937856724e-04
9.762959888451883117e-04
9.385612604566606620e-04
8.815423396705268644e-04
9.179962791701079539e-04
8.663811135191101798e-04
8.026412046256981014e-04
8.993126642674598159e-04
9.200692516435626800e-04
9.982427560479845141e-04
9.089168194950092428e-04
9.221567854067469483e-04
9.880587777723048859e-04
6.946989693888960815e-04
9.789790315279933708e-04
8.907928722210467498e-04
7.720620254524357406e-04
8.075761399034542265e-04
9.551419171357489191e-04
9.363786969658338677e-04
9.101893182074105582e-04
9.456016659199484309e-04
4.668154331128882006e-04
7.193486792387293605e-04
9.332785823110700818e-04
9.657718583923058375e-04
8.678486676491070639e-04
6.512239808301734101e-04
8.162841051533309411e-04
9.048169946376249939e-04
9.556716287736355397e-04
8.539157440581313097e-04
7.530496807283126870e-04
8.882714046212214498e-04
7.236754343641349507e-04
9.904259259869707677e-04
9.546207233755987787e-04
9.513829315298538702e-04
9.030140353758486782e-04
8.677729073049977870e-04
8.456427190880466682e-04
9.656985565358322532e-04
9.933800965841177444e-04
4.876818476501343369e-04
8.713182075994474474e-04
8.774481903228714685e-04
7.812339394427381123e-04
9.206731977072779571e-04
8.570384779458262159e-04
9.633615917731264133e-04
9.616612933751600423e-04
7.802113410501076984e-04
9.424377345855772248e-04
8.822355988926666726e-04
6.499454113716440773e-04
9.406009278462024170e-04
7.960863183149591293e-04
5.752621118221279417e-04
9.926270501089407006e-04
9.207103511568170973e-04
9.969867940842203069e-04
9.776606650374608520e-04
4.314197794317298218e-04
9.630074135312804984e-04
7.010152402956437712e-04
8.993821242676558469e-04
8.898075063216159819e-04
6.862093798644108844e-04
8.309413854290514934e-04
9.344539719559064039e-04
9.846465904613799225e-04
9.577421065170010905e-04
9.143595531824200151e-04
8.268321728449601338e-04
7.719445377476485959e-04
9.888840274212551407e-04
8.316079936371290060e-04
7.269315706436296765e-04
9.961446031814258362e-04
8.413498473663905131e-04
8.991224963877941789e-04
7.186419020188683504e-04
9.020652001040518897e-04
6.768286142447843545e-04
6.760043608606824961e-04
7.564391796746061658e-04
5.172235028695348902e-04
6.297851148413524669e-04
8.968100725252892147e-04
4.385588852749533473e-03
8.414491368033960583e-04
9.467041508958162765e-04
9.216152179695180635e-04
9.612133922409782372e-04
9.753493337193441803e-04
9.390143857029853436e-04
9.108335279738311030e-04
9.357229448134773975e-04
8.191227038506498914e-04
9.591963205585196661e-04
9.839010543768456074e-04
9.372065137245311206e-04
5.114614432228936636e-04
9.198929407513434242e-04
9.031516171312814478e-04
7.475018806041289210e-04
8.433182404339323313e-04
8.690036232671394245e-04
8.631629045594557681e-04
8.404500034224771099e-04
6.608938486017956748e-04
7.560965331170343973e-04
8.403421287637158343e-04
6.627287348024424318e-04
8.174070658312215798e-04
8.962852165322887643e-04
9.046717104203017001e-04
8.408070396408451330e-04
9.224881648383087551e-04
9.898274046290511663e-04
7.799643814208057080e-04
9.313491406828244834e-04
8.568078884825247599e-04
1.809545940991141855e-03
9.067130380858712257e-04
9.317386156199036762e-04
7.559851268114092804e-04
9.434959011326293776e-04
8.855922071964172915e-04
9.602262068264533212e-04
5.882164781451093560e-04
8.816029540815728538e-04
8.086701713553301474e-04
9.553474230854508420e-04
9.480462258733002301e-04
8.110117540646166745e-04
8.803300898848620548e-04
9.082653467566981220e-04
8.974088850582928600e-04
8.342457487293675200e-04
9.611242687462828727e-04
9.077887824255892468e-04
7.639379786552602525e-04
9.125969731181848843e-04
7.344555803936447802e-04
9.964001283399026576e-04
6.907770908410881816e-04
9.736066766833362252e-04
8.647856920996899177e-04
9.634832128671000362e-04
7.313884316340057978e-04
9.657216261831358395e-04
9.142078017911892118e-04
8.590172012639119004e-04
7.497511411963531103e-04
7.410418270618057690e-04
9.949506638797789293e-04
9.653964094896716475e-04
9.333280524808085232e-04
9.711358705701833571e-04
9.640723104660242626e-04
9.818384678828007139e-04
5.090776732552537709e-04
6.516217430656556786e-04
6.859312791863692027e-04
9.985231654897619435e-04
9.686463978443304867e-04
9.121523151528476703e-04
6.857451285128268736e-04
9.137271118644374468e-04
9.732511616566963397e-04
9.861561160479093147e-04
9.579847055843915271e-04
7.380138649341061452e-04
8.520300674274006170e-04
8.403103359329033850e-04
7.882444248870079662e-04
7.854749219740053690e-04
9.791760567807727966e-04
9.604123072326498090e-04
8.488424450693310419e-04
9.393403617149465035e-04
9.364735648227373588e-04
9.195586742858363749e-04
2.436227888754749493e-03
8.274649089849983596e-04
9.440852604095661960e-04
8.249044608806821444e-04
9.033234961765002069e-04
8.493358999366318329e-04
8.492994692637090282e-04
9.359991701378689299e-04
9.891935608812296721e-04
8.159732874923886214e-04
9.320282428523229967e-04
7.205446104429080734e-04
9.234537271001208580e-04
8.493732492518279997e-04
7.595188111196859992e-04
8.027623945492390334e-04
7.913465581930179127e-04
8.792260124612649719e-04
9.222499820588092589e-04
8.352334529914129391e-04
7.763497356311210851e-04
8.527255471412198418e-04
8.636063563476348293e-04
9.332708646968557176e-04
8.054906442810372269e-04
9.838149744534341323e-04
6.063307000931938973e-04
8.275716321762827121e-04
9.588031731351254194e-04
6.686589853454050214e-04
9.083260190938524659e-04
8.716371058399285943e-04
9.217706708271045102e-04
7.311760032813197085e-04
8.789993753290925582e-04
9.456838010724055721e-04
9.161846669212270200e-04
7.037049528324512693e-04
8.952941118364199369e-04
8.270817983788703032e-04
9.003977870505330827e-04
9.450490103132258568e-04
6.574716330083330007e-04
8.954529100353436633e-04
8.550393627291263954e-04
9.574915134070716149e-04
9.671217879094751169e-04
8.470664240425307412e-04
9.452993852100410876e-04
9.828438371665138007e-04
7.602213678256086737e-04
8.767752069877010612e-04
9.363521185693501891e-04
9.995961468295400110e-04
8.709249775915584024e-04
9.736791533657696007e-04
9.778853422858224675e-04
9.247048096634458147e-04
9.647187154167014000e-04
2.863970299027407407e-04
8.316863152830755723e-04
9.248827279066951235e-04
7.104034339058262759e-04
9.458295839951391670e-04
9.473662483037159632e-04
9.543293536429242607e-04
9.856066712544686581e-04
7.913735855489267834e-04
8.001849130274685251e-04
9.324318466701342345e-04
7.852931302216870080e-04
7.554035577356232878e-04
9.481957444923416745e-04
9.650236637930298400e-04
9.073160139911884414e-04
9.810265929104389215e-04
8.950476694017384105e-04
7.865699787945601429e-04
8.669779005672229033e-04
7.320474755525552268e-04
7.535681852265385672e-04
8.903095057817278501e-04
9.047274258033866090e-04
6.531314475874960834e-04
4.073883566088065677e-04
9.751901491618086837e-04
6.511512502883620712e-04
9.897777936889173844e-04
9.991698674424176474e-04
6.150109200011577570e-04
6.797249339350885933e-04
8.763737138158811391e-04
9.211655132452811756e-04
8.416538267671525020e-04
6.613230483547560823e-04
6.689029008972724455e-04
9.360197447094709133e-04
9.017972764496784421e-04
3.269867552328720173e-03
8.116067407674121270e-04
9.735756312314602923e-04
8.756908866883739151e-04
8.839619976191981365e-04
8.872256593092098242e-04
8.801046475508389477e-04
9.481328129085087042e-04
9.578868737220025409e-04
9.144324144004789545e-04
4.475495230558124149e-04
8.678347618069626179e-04
8.301832944088705091e-04
7.325836224841841826e-04
8.348678308107704282e-04
9.007310374972155032e-04
9.860921518708432032e-04
9.000959446701095601e-04
9.597936363878734056e-04
7.869917780952695452e-04
7.835217467332400432e-04
8.889658067245953532e-04
8.223878010307217323e-04
9.676544038752510346e-04
8.241206951242752154e-04
8.951628200406513969e-04
6.667385082154142495e-04
7.749641670334872501e-04
9.134861334498811658e-04
7.985549551613457808e-04
8.282455520930431803e-04
7.505969885316376988e-04
9.632364703678897300e-04
8.937348980617709771e-04
6.658655145689307275e-04
5.475337487854670115e-04
7.116013718564406787e-04
8.579162434984022312e-04
9.786438813756959121e-04
8.267671115298469431e-04
9.086299589287083478e-04
9.774224028341604864e-04
7.387926730850757906e-04
9.516186069653542745e-04
9.521404383540099658e-04
9.346737239496194505e-04
6.225778340732679439e-04
9.031963481012095230e-04
9.326367863442541761e-04
9.574928484172851029e-04
9.034993172138960915e-04
5.316988854837667589e-04
9.486815905512813174e-04
8.907818480500262481e-04
7.730675426629307623e-04
8.425891418167852365e-04
9.653690695969885383e-04
9.234827968661596387e-04
8.982454085693092338e-04
9.974968313021248534e-04
7.855234298511648561e-04
9.619889316615504171e-04
9.091344960928671171e-04
9.285837453447687295e-04
9.977990423029048372e-04
9.515965273074744601e-04
8.158143698238085051e-04
8.538324369022909366e-04
9.690458026743176134e-04
9.797406547645826080e-04
7.357377194505687612e-04
8.398787767649462666e-04
8.567729640507337763e-04
9.108295641042651880e-04
9.664082614754265776e-04
9.339940858984485672e-04
9.100360878571134293e-04
9.196920708613998130e-04
6.628413219467166329e-04
7.139643111412352638e-04
8.471878786140418782e-04
9.898094521170186511e-04
9.650244725630807707e-04
9.383320386749938180e-04
7.466590693238073229e-04
7.440005766624624428e-04
8.633827067277000111e-04
9.258044842309631761e-04
8.621096490244450905e-04
7.028200432259712471e-04
9.912032805972081917e-04
6.433037526053508870e-04
8.523052034000722088e-04
9.172651825771760414e-04
9.372812547007169925e-04
8.418560397189800426e-04
9.748859536645726465e-04
8.227720643826375024e-04
7.451348075574459884e-04
8.533780254010858712e-04
8.375443216938061042e-04
9.897220145270724245e-04
9.395877270319541452e-04
8.495323429189571840e-04
9.882691040620228407e-04
9.435288647160477993e-04
7.865169693556106623e-04
8.753796973497429690e-04
8.247778862862098492e-04
6.086131269674721622e-04
7.131405061384654687e-04
8.751781722321494428e-04
9.617967053207054917e-04
6.810382246138502182e-04
9.130222538853427494e-04
8.495218299672258055e-04
8.108239624218249730e-04
9.760611025475540714e-04
7.903363529209173066e-04
9.065632486306984816e-04
8.477148851803173457e-04
9.538369413961689247e-04
9.153161492667649668e-04
9.064518983818992126e-04
8.241498322330009785e-04
9.917105731306330441e-04
8.591179814612104337e-04
9.901592886004673133e-04
9.562262473177263189e-04
9.897554686461029760e-04
9.667931536965213013e-04
9.197088849334233984e-04
7.832710075242887982e-04
9.934972473257808190e-04
8.777737762758475171e-04
9.607781944322990597e-04
5.928708500281265614e-04
7.695722427252249531e-04
6.517206286493770762e-04
7.251801175045535786e-04
8.595382248739458220e-04
8.696534821764911882e-04
9.507138238823431564e-04
9.873983133638075671e-04
7.982714667186252555e-04
7.864616949396774359e-04
8.914260256024375551e-04
