5.008798587501361865e-04
7.850412483895174987e-04
1.904218273347524359e-04
4.038445621082908943e-04
1.787952032773487687e-04
4.591495691048663730e-04
3.303626626225408813e-04
6.061594973411077447e-04
3.597084871452826960e-04
4.928745768142395178e-04
7.985695297408890170e-04
2.677215062928395284e-04
4.840280622101511554e-04
4.083599040405339053e-04
6.141672740606063385e-04
4.926887127650880771e-04
1.816539915989734411e-04
2.419082821210061240e-04
6.979749941526947055e-05
1.293644302875485153e-04
8.783132308067820304e-04
4.371976938344346308e-04
9.267399943286847019e-04
4.392105461497042285e-04
9.992747594186335292e-04
9.939437233198455957e-04
4.439399035033320118e-04
7.660769127112443400e-04
9.529019136403915624e-04
5.755634662397701717e-04
6.340564066659171161e-04
4.710273968649980603e-04
7.135602219300318794e-04
1.992113056404898330e-04
2.136042421028161442e-04
1.161582439194175365e-04
3.471638112567676515e-04
3.478649623022134207e-04
8.089330459175592125e-04
9.023166755983691445e-04
8.539894407749715199e-04
4.582900853844495970e-04
3.677759646096845358e-04
3.259408978942834878e-04
2.775938143302347783e-04
4.227569786316998091e-04
9.664185936077984707e-04
4.757327943577527307e-04
3.237661229478216995e-04
4.866975846599119748e-04
3.894952942667950779e-04
3.631653261875200656e-04
9.258776371339205724e-04
9.071672945124564791e-04
8.180840107137044015e-04
9.324416212238562096e-04
9.616570773876009781e-04
9.167636163498471547e-04
8.384662612019866401e-04
4.509634196477874113e-04
3.173854095637196338e-04
5.349697543607367933e-04
4.769608213842646549e-04
2.962631725391684512e-04
9.986578573522031377e-04
4.141151444093660317e-04
6.469861283072697589e-04
8.892104091777763841e-04
9.147072612200046748e-04
9.196756842402287191e-04
9.695435141019448366e-04
9.919326783076609644e-04
7.556563979240760176e-04
8.349435742760480395e-04
9.655070920532304868e-04
2.556438517101744523e-04
7.091864271020487109e-04
3.756793232045918529e-04
2.960785095414975032e-04
4.049446484470919927e-04
5.152149912133197063e-04
4.488511269160611050e-04
9.222325624174132486e-04
8.392902965412840643e-04
9.968423140427340456e-04
9.393654469869172630e-04
9.281094867050754260e-04
8.467318352401997927e-04
8.695818200908922435e-04
7.781802903644718938e-04
4.563757246970334691e-04
5.522505815471756563e-04
3.102154838753312660e-04
3.273081061121452251e-04
3.776447059186116562e-04
2.568853022614225878e-04
3.959611355174308400e-04
3.639929478490566694e-04
9.206931421295028173e-04
9.533057276647216582e-04
8.501467980280841275e-04
9.858104074168538844e-04
7.919124638362529112e-04
1.501949802069857398e-03
9.621137236633936496e-04
9.800955685070888990e-04
2.263048366162312419e-04
3.890150096694799942e-04
9.993102163311506914e-04
2.494424470756984036e-04
4.514231839235494093e-04
3.313752415150528208e-04
9.131512616415982109e-04
4.417014744888536626e-04
7.269894534827070487e-04
9.539921565814291071e-04
9.447828649962186631e-04
9.956318447846834729e-04
8.981420673837003932e-04
9.561811096492345285e-04
8.970229884859293179e-04
9.739302094199375759e-04
3.487543530520387236e-04
4.277008823224681677e-04
9.263459394497353117e-04
2.321543475880538665e-04
7.039790800253964420e-04
8.551666450322681357e-04
4.985963585832919875e-04
4.283916337848303613e-04
8.402470719246490916e-04
9.998358768436022004e-04
9.745177911590907627e-04
8.710535220869397577e-04
8.755688008099671293e-04
9.485902622509145843e-04
9.073181335145230619e-04
9.443813394129918493e-04
8.052652880934374480e-04
9.018289603902607254e-04
8.306461839687750981e-04
7.548294202622818361e-04
8.459876596006443705e-04
6.422866534128157667e-04
9.569290702656774172e-04
9.715510770677004970e-04
9.404237736455600682e-04
9.589406659825661094e-04
9.369458509056460827e-04
8.645203028998516004e-04
8.918775776799447996e-04
9.156525431991413555e-04
8.958831263708999515e-04
7.733790577172383607e-04
8.399254625870433699e-04
9.617320872423729128e-04
9.564281761665904824e-04
8.421791771419107064e-04
9.689390287255239542e-04
9.962144238288006548e-04
8.986390432816904195e-04
8.923072841929835519e-04
9.226322024910027508e-04
9.543734834560613223e-04
9.074253286822653308e-04
9.794841447068325380e-04
7.478526050522793511e-04
8.198458382753237572e-04
9.804016752129607326e-04
9.836760085151219357e-04
9.051738952450261166e-04
8.925864089651680544e-04
8.432437639287471143e-04
9.803102360887994138e-04
9.658657170313889040e-04
9.949909183842864380e-04
6.978475402233952352e-04
9.022665489142323025e-04
8.184805771443981470e-04
9.175078456442609109e-04
7.483118803884858394e-04
9.879938013729328006e-04
9.915802930460237974e-04
8.951709078529601626e-04
8.645573902261727284e-04
8.173220485524490542e-04
9.089430933081343866e-04
9.286600806406308806e-04
8.606154108783403700e-04
6.228268957686466933e-04
9.494721828570140687e-04
9.905239626968320721e-04
9.048841258429973777e-04
9.690119775447314510e-04
9.869051496940173251e-04
9.869471593335621407e-04
8.534176734693588173e-04
8.774975197700651819e-04
8.518917460575980982e-04
9.883790512256185323e-04
9.694618258883069828e-04
9.918080512186788766e-04
8.686510548259196440e-04
9.775686252982973556e-04
6.644369960696616673e-04
8.979960333942438311e-04
6.085929916529453365e-04
9.965503628341920717e-04
7.898054153190336990e-04
8.814688348403043605e-04
9.637646122544474281e-04
9.510568794900420286e-04
8.831406162413957261e-04
9.818656231415090474e-04
8.688990120112594084e-04
8.797407526200951011e-04
8.074452587895075695e-04
8.940922818860830290e-04
8.730836417272236361e-04
9.095041066634612648e-04
9.990134507559256249e-04
8.371913653915097342e-04
9.571025846293323980e-04
7.958200406297244456e-04
8.878801930162216749e-04
9.348292189639284544e-04
8.836938488299139749e-04
8.918057194308159907e-04
8.909812334501054920e-04
8.749999000190467058e-04
9.481224148970568422e-04
9.903262995487605025e-04
8.962743227026725990e-04
9.967353976304549334e-04
9.844270895760232065e-04
9.392643052795746073e-04
9.995579772320573042e-04
9.407304623263446075e-04
7.910016757030069456e-04
8.981562222392103223e-04
9.528938297054256878e-04
8.914393654371188802e-04
9.783797008522387983e-04
9.061300345150069546e-04
8.735168311649887940e-04
9.518999593871591003e-04
7.753302169201115035e-04
9.028984979467802319e-04
9.639378664301201383e-04
9.692224555989392698e-04
9.058460425805936467e-04
9.356486464322522068e-04
8.559863369954623380e-04
9.436352863181340922e-04
7.565646062693831553e-04
9.089500174489506534e-04
