59
60
60
61
61
60
60
61
61
60
60
60
60
60
60
60
60
61
60
61
60
60
60
60
61
60
60
60
61
60
61
60
60
60
60
60
60
60
61
61
60
60
60
60
61
61
61
61
61
61
61
60
60
60
60
60
61
61
61
61
61
60
60
60
60
60
60
60
60
60
60
60
61
61
61
61
61
61
58
61
61
61
61
61
60
61
60
61
58
61
61
61
61
61
60
60
61
61
60
60
61
61
61
60
60
60
60
61
61
60
60
60
61
61
61
61
61
60
60
60
61
61
61
61
61
61
51
62
62
61
51
62
62
61
60
60
60
61
61
60
60
60
60
61
61
61
61
60
61
60
60
60
60
60
60
60
60
60
60
60
61
61
60
60
61
61
61
61
60
59
60
60
61
61
61
61
60
60
60
61
61
61
61
61
61
61
61
61
61
61
61
60
60
61
61
61
61
61
61
61
61
61
60
60
60
60
60
60
61
61
61
60
60
61
60
61
60
61
60
60
61
61
61
61
61
61
61
61
60
60
60
61
61
61
61
61
60
60
60
61
61
61
61
60
60
60
61
61
61
61
61
60
61
61
61
61
61
61
61
60
60
60
60
61
60
60
60
60
61
61
61
61
61
60
61
60
61
61
61
61
60
61
60
61
61
61
61
59
60
61
61
61
61
60
60
60
60
60
60
60
60
60
60
60
60
60
60
60
61
61
60
61
60
60
60
60
60
60
60
61
61
61
61
61
61
61
61
61
61
61
61
61
61
60
60
60
61
61
61
60
60
60
61
61
61
60
60
60
61
61
61
61
61
61
61
61
61
61
60
60
60
61
61
61
60
60
60
61
61
61
61
61
60
60
60
61
61
60
60
60
61
58
61
61
61
60
51
62
62
61
61
60
60
60
60
61
60
60
60
60
61
60
60
60
60
60
60
60
60
60
60
60
60
60
60
60
60
60
60
60
61
61
61
61
61
60
60
60
60
60
60
60
60
60
60
60
61
61
61
61
60
60
60
60
61
60
61
61
60
60
60
60
60
61
60
60
61
61
60
60
61
61
61
61
60
60
61
61
60
61
61
61
60
60
60
61
61
61
61
61
61
60
51
63
61
51
62
62
62
61
61
61
61
60
60
61
61
61
51
62
62
62
61
61
60
58
61
61
61
61
60
59
60
61
61
61
61
61
60
60
60
61
61
60
59
61
61
61
60
58
61
61
61
58
61
60
61
58
61
61
58
61
61
51
62
58
62
62
61
61
61
60
60
61
61
61
60
51
63
62
61
61
60
59
61
61
61
61
61
60
60
60
60
60
61
60
60
60
60
60
61
61
61
60
61
60
59
61
61
61
60
60
60
61
60
60
60
60
61
61
61
61
60
60
61
60
51
63
61
60
60
61
60
61
61
51
63
62
60
51
57
62
61
61
60
60
61
61
61
61
61
61
61
60
60
60
62
61
61
61
60
59
61
61
61
61
61
61
61
61
61
61
60
61
60
60
61
61
61
61
60
60
61
60
61
61
61
61
61
61
51
62
61
61
60
60
61
61
60
60
60
60
61
61
60
60
60
60
61
60
60
60
60
60
60
60
60
60
60
60
60
60
60
60
60
60
60
60
60
61
60
60
60
60
60
60
60
60
60
60
60
60
60
60
60
60
60
60
60
60
60
61
60
60
60
60
61
61
61
61
61
60
60
60
61
61
60
60
61
60
60
60
61
61
61
60
61
61
61
60
61
61
61
61
51
63
61
51
62
62
61
61
61
61
61
60
60
60
60
60
60
60
60
60
60
60
60
60
61
60
60
60
60
60
60
60
61
61
61
61
60
60
60
51
62
62
61
60
60
60
60
60
61
61
61
61
61
60
60
60
61
61
61
61
60
60
60
60
60
61
61
61
61
61
61
60
60
61
61
60
60
61
61
61
61
60
60
60
60
61
61
60
58
61
61
61
61
60
60
58
61
61
61
58
61
61
61
61
61
60
51
63
62
61
58
61
61
61
58
52
62
62
62
61
61
61
61
61
60
60
60
61
51
63
61
51
63
62
61
51
62
62
61
61
51
62
61
61
61
61
61
61
61
61
60
60
61
60
61
61
61
61
61
61
59
60
60
60
60
61
61
61
61
61
61
60
51
62
62
61
59
60
61
61
61
61
61
60
51
63
62
61
61
60
51
62
62
61
61
58
61
61
58
61
61
61
61
51
63
62
61
51
62
62
61
58
61
61
61
60
60
58
62
61
61
61
61
61
61
60
60
60
61
61
61
60
51
62
61
60
60
60
61
60
60
61
60
61
60
51
62
61
60
60
60
61
60
60
60
60
61
61
61
61
61
61
61
61
51
62
62
61
61
61
60
60
60
60
60
61
51
63
62
58
61
61
61
61
61
60
60
61
61
61
61
60
51
62
61
61
61
61
60
60
61
61
60
60
60
60
60
60
60
61
61
61
60
60
60
60
60
60
60
60
61
61
60
60
61
61
60
60
61
61
61
61
60
60
61
60
61
61
61
61
61
60
61
61
60
51
63
61
61
60
61
61
60
60
60
60
60
61
61
61
60
60
60
60
61
61
61
61
60
60
61
61
60
60
60
60
61
61
61
60
60
60
60
60
62
61
51
62
62
61
61
61
60
51
63
61
61
61
61
60
61
60
60
60
61
61
60
51
62
62
61
61
61
60
60
60
60
60
60
60
60
61
60
60
60
60
60
60
61
61
61
61
60
60
60
60
61
60
60
61
61
61
60
60
61
61
61
61
61
60
60
61
61
61
60
60
60
60
60
60
61
61
61
60
61
61
61
61
61
61
61
61
51
63
62
61
61
61
58
61
61
61
61
58
61
61
61
61
60
60
60
60
61
61
61
60
60
60
61
61
58
52
63
61
61
58
62
61
61
61
61
60
59
61
61
61
61
60
60
61
60
60
60
60
61
61
61
61
61
60
60
60
61
61
61
61
60
60
61
61
61
61
61
61
61
61
61
61
51
62
61
61
60
58
61
61
61
60
60
59
61
61
61
60
58
61
61
61
60
60
60
61
60
60
60
60
60
60
60
61
58
61
61
58
61
61
61
58
61
60
60
61
61
61
60
60
61
61
60
58
61
61
61
60
60
60
61
61
61
61
61
61
61
61
61
61
60
60
60
61
61
61
61
61
61
61
61
61
61
60
60
60
60
60
60
60
61
61
61
61
60
61
60
60
61
61
61
58
61
61
61
61
61
60
60
60
60
60
60
60
58
62
58
62
61
60
51
62
62
59
52
63
62
61
61
60
60
61
61
61
61
60
51
63
62
61
58
61
61
61
61
61
61
61
61
61
61
61
61
60
51
62
61
61
61
61
60
60
60
60
60
61
61
60
60
60
61
61
61
61
60
61
61
61
61
61
61
61
61
61
60
60
60
60
61
61
61
60
60
60
61
61
61
61
60
60
60
60
61
61
61
61
60
60
61
61
61
61
60
58
61
61
61
61
51
62
61
61
61
51
63
62
60
51
62
62
61
61
61
60
60
60
60
60
61
61
61
61
60
60
60
60
61
61
61
60
59
61
60
60
60
60
60
60
60
60
61
60
60
60
60
60
60
60
60
60
60
60
60
60
60
60
60
60
61
60
61
61
60
60
60
60
60
60
60
60
61
61
61
61
60
60
60
60
61
60
60
60
61
60
60
60
61
61
61
61
61
61
61
51
63
62
61
61
61
58
52
63
62
60
51
62
62
61
51
62
62
61
61
60
60
58
61
61
62
61
61
61
61
58
61
61
61
61
61
60
61
61
61
61
61
61
60
60
60
60
60
60
60
61
61
61
60
60
60
60
61
61
60
60
60
60
60
60
60
61
60
60
61
61
61
61
60
51
62
62
61
61
61
60
60
60
60
60
60
60
60
60
60
60
60
59
61
61
61
60
59
61
61
60
61
61
61
61
60
60
60
60
59
61
61
60
58
61
61
58
61
61
61
61
61
61
61
61
61
61
61
61
61
61
61
61
61
61
61
61
61
61
61
61
61
60
60
60
61
61
60
60
60
61
61
60
60
60
60
61
61
61
60
60
60
61
61
61
60
60
60
61
61
61
61
61
61
61
61
61
61
61
61
60
61
61
61
51
63
62
61
59
60
60
61
61
60
51
62
62
61
61
60
60
61
61
61
61
60
60
61
61
61
61
61
61
61
61
61
61
61
61
61
51
62
62
61
61
61
60
60
60
61
61
61
61
61
58
61
61
61
61
61
61
60
60
60
60
60
60
60
60
61
61
61
60
60
60
60
60
60
60
60
60
61
60
60
60
60
61
60
60
60
60
60
61
61
61
60
60
60
60
61
61
61
61
60
60
60
61
61
61
61
61
61
58
61
61
61
60
60
60
61
61
61
60
60
60
61
61
61
61
61
60
60
60
60
61
60
60
60
60
60
61
61
61
60
60
60
60
60
60
60
60
60
61
60
60
60
60
60
60
60
60
60
60
60
60
60
60
60
60
61
61
60
60
61
61
61
61
61
60
60
60
60
60
61
61
61
61
61
60
60
61
61
61
60
51
63
62
61
60
60
61
61
61
61
61
61
61
60
60
61
61
61
60
60
60
61
61
61
61
61
61
61
61
61
61
61
61
61
61
61
58
61
61
61
61
58
61
61
61
61
58
61
61
60
58
62
61
61
61
51
63
61
60
60
60
60
60
61
60
60
60
60
60
60
60
60
60
60
60
61
61
60
60
60
61
60
60
60
60
60
60
61
61
61
61
61
60
60
60
60
60
61
61
60
51
63
61
60
61
58
61
61
61
60
60
51
63
63
61
61
61
61
61
60
51
63
62
61
61
58
61
61
61
61
61
61
61
61
61
61
61
61
61
60
60
61
61
61
60
61
61
60
60
60
58
61
61
61
61
60
61
60
60
61
61
58
52
62
61
61
61
61
61
61
61
51
63
61
59
61
61
61
61
61
51
63
61
60
60
61
61
61
61
51
63
62
61
61
61
61
61
61
61
58
52
63
62
61
61
61
61
61
61
51
62
62
61
58
61
62
61
60
58
61
61
61
61
61
61
60
60
51
63
61
60
61
61
60
62
60
60
60
61
60
61
58
62
58
61
61
60
60
60
60
61
61
61
61
61
61
60
60
60
61
61
61
61
61
61
60
60
61
61
61
60
60
60
61
61
60
60
60
60
61
61
61
60
60
60
60
60
61
61
60
60
61
60
60
60
61
61
61
61
60
60
60
60
60
60
60
60
61
61
61
61
51
63
62
61
61
61
59
60
61
61
61
61
60
60
60
60
60
60
60
60
61
61
61
61
61
60
60
60
60
60
60
60
61
61
60
60
60
60
60
60
61
61
60
60
61
58
62
61
51
62
63
65
68
60
50
63
61
50
55
68
61
60
60
60
60
60
60
60
61
61
61
61
61
61
61
61
61
61
61
58
61
61
61
60
61
60
60
60
61
61
61
60
51
62
62
61
61
61
60
60
61
60
61
61
61
60
51
63
61
60
61
61
62
61
61
60
60
58
62
61
58
62
61
61
61
61
51
62
61
60
61
60
61
61
51
62
61
51
63
61
61
60
51
62
62
62
61
61
61
59
60
60
61
61
61
61
60
51
62
62
61
60
59
61
61
61
61
60
60
60
60
61
61
60
58
63
64
58
64
41
63
65
66
57
65
58
55
63
62
51
62
62
61
51
63
62
61
61
61
60
60
60
61
61
61
61
61
60
61
61
61
61
61
61
58
61
61
61
61
60
61
61
61
60
60
61
61
61
61
61
61
60
51
62
61
51
63
62
61
61
51
62
62
62
61
61
60
51
62
62
61
60
60
60
61
61
61
61
61
61
51
63
51
62
62
61
61
51
62
61
61
61
61
61
60
59
61
61
60
60
58
61
61
61
61
51
63
62
61
61
61
61
61
61
61
61
61
61
51
62
57
63
66
62
59
54
55
56
63
62
61
61
64
63
57
61
62
61
56
62
61
59
60
61
61
61
61
61
61
60
51
63
62
61
61
61
58
61
61
61
61
61
60
60
61
61
61
61
61
60
60
60
61
61
60
60
60
61
60
60
60
61
61
61
60
60
60
61
61
61
60
60
60
61
61
61
61
61
61
61
61
60
60
61
61
61
60
60
60
61
60
61
61
61
61
61
61
61
60
60
60
61
61
61
61
61
61
61
60
60
60
60
60
60
60
60
61
61
61
61
61
61
61
60
61
61
61
61
61
62
72
50
64
58
62
61
61
61
61
61
52
62
59
59
60
55
55
62
62
61
60
61
60
60
61
61
61
61
51
63
61
61
60
60
61
60
60
61
60
60
61
61
60
60
60
60
61
61
61
60
60
60
60
60
60
60
61
61
61
60
60
61
61
61
61
61
61
61
61
61
60
60
60
60
61
61
60
60
60
60
60
60
60
60
60
61
60
60
61
60
60
60
60
60
61
60
60
60
60
61
61
61
60
60
60
60
60
60
60
61
61
61
61
61
60
60
61
61
60
60
61
61
61
61
61
61
60
57
75
59
59
60
59
61
51
62
62
61
62
56
62
63
54
58
48
58
59
63
62
59
60
61
60
61
59
60
60
61
61
61
60
60
61
61
61
61
60
60
61
61
51
62
61
61
61
61
61
60
61
61
60
60
60
60
61
61
60
61
61
60
60
60
60
61
61
61
60
60
60
60
61
61
61
61
61
61
60
60
60
60
60
60
61
61
61
61
61
60
60
60
60
60
60
60
60
60
61
60
60
60
61
61
61
61
61
61
61
61
60
60
60
60
60
61
61
61
61
60
60
60
61
60
60
60
62
72
54
58
56
71
61
51
62
62
61
60
54
60
54
56
71
52
66
55
59
60
60
59
60
60
60
61
61
61
60
60
60
61
61
60
61
61
61
60
60
61
61
61
61
60
60
60
61
61
61
61
61
60
51
62
62
60
51
62
62
62
61
60
61
61
61
60
61
61
61
61
61
61
61
60
60
61
60
61
60
61
60
61
51
63
62
58
61
61
61
61
51
63
62
61
61
61
60
61
60
60
60
61
61
61
60
61
61
61
61
51
62
61
61
61
60
60
60
61
60
60
60
60
60
61
60
60
50
76
57
65
73
59
59
52
62
62
61
61
65
60
63
50
57
99
57
56
60
56
61
58
61
61
60
61
61
60
60
60
60
61
61
61
60
61
60
60
61
61
61
61
60
60
60
61
58
61
60
61
61
61
60
60
61
61
61
61
61
58
52
63
62
61
61
60
60
61
61
61
61
61
51
62
62
61
61
61
61
60
60
60
61
60
60
60
61
60
60
60
60
61
60
61
61
61
60
60
60
61
61
61
61
61
61
61
61
60
51
62
62
61
61
60
60
60
60
60
60
60
60
60
60
61
60
60
64
63
57
35
66
64
60
54
62
61
60
61
62
54
63
61
69
53
60
52
60
61
62
61
61
61
51
63
62
61
60
60
60
61
61
61
61
58
61
61
61
60
60
61
61
61
60
60
61
51
62
62
61
61
60
60
61
60
61
61
61
61
61
61
61
60
60
60
60
61
61
61
61
60
60
60
61
61
60
61
61
61
61
61
60
61
60
61
61
61
61
61
61
60
51
62
61
61
61
61
61
60
60
60
61
60
60
61
61
60
61
60
60
60
60
60
61
60
61
60
60
61
61
61
60
60
60
61
66
55
53
65
61
59
59
61
60
60
60
60
59
55
64
59
59
70
73
73
62
50
55
62
60
60
60
60
60
60
60
61
61
61
61
60
61
60
61
61
61
61
60
60
60
61
61
61
60
60
51
62
62
61
61
61
61
60
60
61
61
61
61
61
60
60
61
61
60
60
60
60
61
61
61
60
60
61
61
60
60
61
61
61
61
61
60
51
63
62
61
61
61
58
52
63
62
61
61
60
60
60
60
61
60
61
61
61
61
51
63
51
62
62
61
61
61
61
51
62
62
61
61
60
60
60
60
61
70
56
75
68
58
60
50
62
51
62
62
61
59
60
52
54
90
46
62
47
49
62
53
56
63
62
61
61
60
60
61
61
61
61
61
61
61
61
61
51
62
62
61
51
63
62
61
59
61
60
61
60
60
60
61
61
61
61
61
61
61
61
51
63
61
51
63
62
61
61
61
61
60
60
61
61
61
60
60
61
61
60
60
60
61
61
60
51
63
51
62
61
61
60
60
61
61
61
60
60
61
61
61
61
61
61
60
60
60
60
60
60
61
61
61
61
61
60
51
62
62
61
59
60
62
60
61
62
60
61
50
66
65
46
60
61
53
59
59
48
62
50
53
55
68
55
64
58
52
52
60
65
61
57
60
51
44
62
62
62
62
61
60
61
60
60
61
61
60
60
60
60
61
61
61
61
61
61
61
61
61
61
61
58
61
61
61
61
61
58
61
61
51
63
61
58
61
61
61
61
51
63
61
58
61
61
61
61
61
61
61
61
61
61
61
60
60
60
61
61
61
60
51
62
62
62
61
61
60
60
60
60
61
61
61
61
61
61
61
61
61
60
60
60
60
60
61
60
61
61
61
61
60
61
60
60
55
56
62
57
65
54
63
58
66
46
56
59
61
60
62
65
58
67
61
59
61
53
55
56
52
56
64
65
60
61
61
54
61
61
61
58
61
61
61
61
58
61
61
58
61
61
61
61
61
60
60
61
61
61
61
61
60
60
60
60
61
61
60
60
61
61
61
61
61
61
61
61
60
60
60
61
61
61
60
61
61
61
61
61
60
51
63
62
51
55
62
61
61
61
61
61
51
62
62
61
51
63
62
61
61
61
61
60
60
60
60
60
58
61
61
61
60
60
61
58
61
61
61
61
62
59
62
72
60
60
59
62
57
70
65
53
64
62
79
59
62
55
67
48
55
57
65
53
70
62
62
64
51
64
60
61
62
60
60
60
61
61
61
61
60
60
60
61
60
60
61
60
61
60
61
60
61
60
60
60
60
60
60
60
60
60
60
60
61
61
60
60
60
60
60
60
61
61
61
61
60
60
60
60
61
61
60
61
61
61
61
61
60
59
60
61
60
60
61
51
62
61
61
60
60
60
61
61
60
60
60
60
61
61
61
61
60
60
60
60
60
60
60
60
60
60
60
60
60
60
60
60
61
61
62
68
61
54
60
61
61
99
52
75
71
61
57
58
52
65
58
58
61
68
54
60
58
58
59
59
61
59
52
59
64
56
60
52
61
62
62
61
59
60
60
61
61
61
61
61
61
61
60
61
61
61
61
61
60
60
60
61
61
60
60
60
60
60
61
61
58
52
63
62
62
61
61
61
51
63
62
61
61
58
61
61
61
61
61
61
61
61
61
61
61
61
61
61
60
51
62
62
61
60
51
62
62
61
61
60
60
60
60
60
61
61
61
61
60
52
56
63
51
63
61
51
58
63
57
62
63
62
62
60
53
80
69
59
61
59
61
54
64
58
61
61
51
56
61
62
60
65
60
61
50
45
60
60
63
75
70
60
55
66
62
59
56
57
62
61
61
61
60
60
61
61
61
61
61
61
60
60
61
61
61
61
61
61
58
61
61
61
61
58
61
61
61
60
60
60
61
61
61
61
60
60
61
51
63
62
61
61
61
60
60
60
60
60
61
61
61
61
61
51
62
62
61
61
61
61
61
60
60
60
60
61
60
61
60
60
58
61
61
61
61
58
51
57
54
65
51
51
63
64
50
62
55
63
66
56
55
74
53
63
54
60
60
65
57
56
59
58
62
59
61
58
63
61
58
63
58
52
65
66
69
54
63
59
59
65
62
63
68
46
60
52
56
62
62
60
60
61
61
61
61
61
60
60
61
61
61
61
60
60
60
60
60
60
61
61
61
60
60
60
60
61
61
60
60
61
60
60
60
60
60
60
60
60
61
61
60
61
61
58
52
63
62
61
59
60
61
61
61
61
61
60
60
60
60
61
61
61
61
61
61
61
60
60
60
60
61
61
60
60
62
68
56
57
51
52
62
61
61
50
65
61
61
61
59
62
46
48
62
61
57
64
54
61
60
54
61
61
63
60
61
56
47
57
66
62
66
52
64
56
65
53
60
41
55
59
62
54
59
62
52
63
58
62
61
61
60
60
60
61
61
60
60
60
61
61
61
60
51
63
62
61
61
61
61
60
60
60
61
61
61
61
61
61
61
60
60
60
60
61
61
61
61
61
61
61
60
60
60
60
61
60
60
60
60
60
60
60
61
61
60
60
60
60
60
60
60
60
60
60
61
61
60
51
62
62
61
61
73
53
51
65
57
53
59
64
76
62
79
59
59
59
62
59
57
66
66
60
65
61
64
59
61
61
60
60
60
65
59
55
49
57
59
58
65
60
60
59
48
62
62
56
66
61
60
62
70
61
61
58
60
60
61
61
51
63
62
62
61
60
60
60
51
63
62
61
51
62
62
61
61
61
61
61
61
60
51
62
62
61
60
60
61
61
61
61
51
63
62
58
61
61
61
60
61
61
61
61
61
60
61
60
61
60
60
60
61
61
61
61
60
60
60
60
60
61
61
61
58
61
61
61
61
59
51
64
63
58
64
57
60
52
62
61
61
62
57
61
70
61
56
51
57
67
58
56
58
55
66
66
62
50
63
57
62
63
63
54
62
62
63
59
55
63
61
60
61
62
59
63
60
60
41
56
61
63
67
64
54
62
62
61
60
60
60
60
60
60
61
60
61
60
60
60
61
60
61
61
60
60
60
61
61
61
61
61
60
60
60
60
60
60
60
60
60
61
60
60
61
61
61
61
61
61
61
61
61
51
63
62
61
61
59
60
60
60
60
61
61
61
61
61
61
60
60
60
60
60
60
61
61
61
62
70
52
52
64
52
53
56
59
61
52
63
62
61
62
61
55
64
58
59
58
70
55
57
66
55
60
56
51
62
63
62
60
61
59
58
64
55
58
61
55
61
53
64
54
55
45
60
62
60
51
62
68
60
55
60
52
62
59
61
60
61
61
60
60
61
61
61
60
60
61
61
61
61
61
61
61
61
60
60
61
61
61
60
60
60
61
60
61
61
60
60
60
60
61
61
61
61
60
60
60
60
61
61
60
51
62
61
61
61
60
60
60
60
61
61
61
61
61
60
60
61
60
60
60
60
61
61
67
62
58
60
61
55
62
58
60
52
63
51
62
62
63
57
63
62
54
62
61
48
61
55
57
68
59
62
53
62
61
57
51
62
52
61
57
57
63
58
59
62
61
61
60
66
64
66
61
67
48
63
65
52
99
48
61
60
60
60
61
61
60
60
61
61
61
61
61
60
60
60
60
61
61
61
61
60
61
61
61
61
60
60
61
60
61
61
60
60
60
61
60
60
60
60
60
61
61
61
61
60
51
62
62
61
60
60
60
61
61
61
61
61
60
60
60
60
61
51
63
61
60
59
60
60
60
70
56
64
55
61
61
63
60
60
58
60
60
51
55
62
63
57
65
51
62
65
54
65
60
60
54
67
60
53
58
63
53
54
64
52
53
56
57
57
62
56
59
59
60
65
55
56
58
48
59
58
58
45
60
61
59
60
61
60
61
61
60
60
60
60
60
60
61
61
61
61
60
60
60
61
60
61
61
61
61
61
61
60
61
61
61
61
61
60
60
60
60
61
60
60
61
61
61
61
61
61
61
51
62
62
60
59
60
61
61
61
61
61
61
51
62
62
61
61
60
58
61
61
61
60
61
63
63
53
55
51
64
62
62
60
61
60
62
51
62
61
60
61
43
56
64
51
58
65
67
58
64
59
54
75
54
56
63
61
63
57
63
61
71
62
67
53
64
58
69
65
58
58
60
55
68
58
52
63
59
60
60
60
60
60
60
60
61
61
61
60
61
61
61
61
61
61
61
61
61
60
51
62
62
62
61
61
61
61
51
63
61
51
62
62
61
60
60
60
61
61
61
61
60
60
60
61
60
60
60
60
61
61
61
61
61
61
60
60
60
60
60
60
61
60
60
60
58
61
59
61
61
51
70
53
55
50
67
58
62
60
62
62
50
63
61
58
62
57
60
61
67
51
62
53
57
58
66
56
66
54
54
67
59
60
61
62
58
52
55
61
60
78
45
57
61
57
57
54
54
61
59
45
63
62
57
63
57
62
61
58
61
61
61
61
58
61
61
61
61
60
60
60
58
61
61
61
61
61
60
51
62
62
61
61
58
61
61
61
58
61
61
61
51
63
62
61
60
60
61
60
60
61
61
58
61
61
61
61
60
60
61
60
60
60
61
61
61
61
61
61
61
61
60
60
62
61
61
60
62
67
62
67
58
46
51
63
62
61
61
60
60
61
60
59
60
61
61
61
67
51
60
56
70
54
61
99
66
47
41
67
60
54
64
60
57
45
59
63
51
65
74
52
64
59
58
70
53
61
53
72
61
61
54
59
61
61
59
60
60
60
61
60
60
60
60
60
60
60
60
60
61
61
51
63
61
61
60
61
60
61
61
61
60
51
62
62
61
61
61
61
61
60
60
60
60
60
61
60
61
61
61
61
60
60
60
60
61
61
61
61
61
61
61
60
60
61
61
61
60
51
63
62
61
61
58
63
68
55
56
59
57
58
63
70
54
63
61
60
51
62
62
60
60
60
60
60
53
53
60
64
61
68
59
53
66
58
57
58
56
58
56
63
67
55
53
60
55
62
58
61
57
45
58
58
52
65
50
50
60
65
99
56
51
63
59
60
60
60
60
60
60
61
61
61
61
61
61
61
60
60
61
61
61
61
61
61
61
60
60
60
60
61
61
61
61
60
60
60
61
61
61
61
61
60
60
61
61
61
60
51
62
62
61
61
61
60
60
60
60
61
61
61
60
60
61
61
60
51
63
51
57
61
59
65
51
62
52
63
53
55
63
52
64
62
56
58
61
61
61
59
60
60
61
61
50
57
61
70
55
66
59
69
64
55
60
59
63
52
43
56
53
66
52
68
54
63
58
59
59
55
61
56
56
99
56
60
61
63
49
62
61
61
61
60
60
60
60
60
61
61
61
60
60
60
60
60
60
60
61
61
60
60
60
60
60
61
61
60
61
61
61
60
61
60
60
61
61
60
60
61
61
61
61
61
60
60
60
60
61
60
61
61
61
61
61
61
61
61
61
60
60
60
61
61
58
61
58
61
61
69
70
51
54
63
63
62
59
62
54
66
61
60
62
58
62
51
62
60
51
63
51
63
51
61
46
66
51
63
62
63
66
53
59
53
65
55
59
70
65
46
54
61
65
58
66
49
64
58
57
64
62
61
54
55
64
56
62
52
63
61
60
60
60
61
61
61
60
61
60
61
61
60
58
61
61
61
61
61
60
59
61
61
61
61
61
61
61
61
60
59
61
61
61
61
61
60
60
61
60
60
61
61
61
61
61
60
61
61
61
61
61
58
61
61
61
60
60
60
61
61
61
60
58
61
61
51
60
69
58
64
58
61
57
62
58
59
61
61
57
60
62
60
61
57
61
61
60
61
60
61
67
51
61
60
76
51
65
62
53
63
63
58
52
61
65
61
66
61
68
53
66
61
58
57
60
70
59
52
58
62
59
67
55
52
62
61
60
60
60
60
60
60
60
61
61
61
60
60
60
61
61
61
61
61
61
61
60
60
60
61
61
61
60
60
60
61
61
61
61
61
61
61
60
60
60
61
61
61
61
61
60
60
60
60
61
61
61
61
61
61
61
60
59
60
61
61
58
61
61
61
61
51
62
59
60
54
66
53
55
62
61
62
60
65
61
61
58
62
52
62
62
60
51
62
62
60
59
60
61
58
53
58
66
62
63
60
58
55
53
59
54
63
66
53
63
62
41
62
62
51
64
49
62
62
59
61
68
55
51
61
67
58
58
60
61
61
60
60
61
61
51
63
61
61
60
60
61
61
61
60
60
60
61
60
61
61
61
61
61
61
61
61
61
61
61
61
61
61
60
60
61
61
61
61
61
61
61
61
60
60
60
60
61
61
61
61
60
60
60
60
61
60
60
60
61
61
61
61
61
62
57
58
60
59
59
61
61
62
51
63
61
60
62
61
60
61
60
60
61
61
60
59
60
51
61
52
64
62
50
56
61
61
61
60
51
48
65
57
70
57
57
56
57
58
58
99
62
61
61
51
62
51
63
63
53
69
63
56
61
58
51
62
60
60
60
60
61
61
61
60
60
60
61
61
61
61
60
60
59
61
61
61
61
61
61
61
61
61
61
61
61
61
61
61
60
60
60
61
61
61
60
60
60
60
61
61
61
61
61
61
60
60
60
60
61
61
61
61
61
61
60
51
62
62
62
61
62
56
68
59
62
51
55
63
54
62
61
61
60
60
60
61
60
61
61
61
61
51
62
62
61
61
61
51
63
54
66
51
63
61
51
62
54
58
60
72
49
63
64
61
61
56
59
99
61
62
59
56
58
60
53
53
63
64
64
68
52
64
59
53
54
61
61
61
59
61
60
60
61
61
61
60
61
61
61
60
60
60
61
61
61
61
61
60
60
60
61
61
61
60
51
63
61
60
51
63
61
60
60
61
61
61
61
61
61
61
60
60
60
60
60
60
60
60
61
60
60
60
60
60
61
61
60
60
60
81
57
64
58
61
61
59
60
65
57
54
58
57
63
57
62
61
61
60
60
60
60
60
60
61
60
60
60
60
62
53
63
61
61
60
62
53
70
58
59
63
69
56
59
52
48
61
56
56
63
63
59
72
61
64
63
49
50
97
62
71
58
52
61
60
60
60
60
61
61
61
60
61
58
61
61
61
61
61
60
60
61
61
61
60
60
61
61
61
61
60
58
61
61
61
61
61
61
61
61
61
61
61
60
60
60
60
61
61
61
61
61
60
60
60
61
61
61
61
61
61
60
60
60
60
60
60
59
56
65
61
59
61
61
60
58
58
63
66
61
61
60
60
60
61
60
60
62
62
61
60
60
60
61
61
60
59
60
59
58
62
60
61
53
68
61
70
54
67
47
71
66
61
66
59
64
58
59
67
64
67
65
59
53
54
51
62
64
57
63
50
55
63
60
61
61
61
60
60
60
61
61
60
61
61
61
61
60
58
61
61
61
61
61
60
60
60
61
60
61
61
61
60
60
60
61
61
61
61
61
61
60
60
60
61
61
61
61
61
61
61
61
61
60
60
60
60
61
61
61
61
60
51
62
61
68
58
50
62
53
55
56
64
59
60
61
61
61
84
52
63
61
51
60
62
60
60
61
60
51
56
62
61
61
61
60
61
61
63
54
53
69
58
55
62
61
58
56
56
58
56
59
59
48
72
68
53
66
63
63
50
64
57
57
54
62
58
63
61
58
61
61
61
61
61
60
60
61
61
61
60
60
61
61
61
59
62
58
62
58
61
61
61
61
60
60
60
60
61
61
61
61
61
60
60
60
61
61
61
61
61
60
60
60
61
61
61
61
61
61
61
61
51
62
62
61
61
61
60
60
60
60
60
78
50
67
56
57
51
55
63
61
62
62
60
60
60
62
62
54
56
61
53
62
61
62
61
53
62
63
63
62
61
60
57
47
57
47
70
55
63
58
59
62
61
62
61
61
74
64
56
60
56
51
61
53
54
61
53
67
59
55
46
58
64
61
61
60
60
61
61
61
61
61
60
60
61
61
60
60
61
61
61
62
51
63
59
62
63
60
61
60
60
60
60
61
61
61
61
61
60
60
60
60
61
61
60
61
61
61
61
60
60
61
60
61
61
61
61
61
60
51
62
62
61
61
60
60
60
61
60
63
53
63
55
59
61
59
62
63
62
61
62
62
62
61
55
62
62
61
60
60
61
62
61
60
63
55
59
62
61
61
58
49
96
69
60
64
66
54
45
61
59
61
62
59
55
71
60
62
60
63
56
64
61
43
64
57
84
51
57
68
60
59
60
60
60
60
61
61
61
60
58
61
61
61
61
61
60
60
61
61
51
57
62
60
63
62
61
60
60
60
61
61
61
61
61
60
60
60
60
61
61
61
60
61
61
61
60
61
61
60
60
60
60
60
60
61
61
61
51
62
62
61
59
60
61
61
61
62
86
65
67
59
60
60
55
62
60
62
61
60
60
59
60
60
60
61
62
51
62
62
61
61
54
64
51
55
57
63
59
99
61
65
46
62
55
53
56
63
62
60
62
49
64
55
51
61
42
64
54
58
61
68
62
56
66
54
51
57
60
61
62
61
61
61
61
61
61
61
61
61
60
60
61
60
60
61
61
63
61
61
61
60
60
60
61
58
61
61
61
60
60
61
61
61
61
60
60
60
61
61
61
61
61
60
60
60
61
61
61
61
61
61
61
61
61
60
51
62
62
61
61
61
61
61
61
50
64
77
70
52
64
55
51
59
63
61
58
62
57
52
56
59
60
58
61
58
63
62
56
64
57
62
62
56
57
69
53
57
67
76
69
57
53
63
62
58
62
52
63
68
50
58
54
53
62
67
53
58
55
59
60
75
61
58
58
63
61
61
61
60
60
60
60
61
61
61
60
61
61
61
61
61
61
60
51
64
55
56
64
57
61
61
60
52
63
61
60
60
60
61
61
61
61
61
51
62
61
61
51
62
62
61
60
60
61
61
61
61
61
61
60
60
60
60
60
60
60
60
61
61
60
61
60
61
61
55
69
63
50
59
64
59
60
60
60
54
55
62
62
48
64
62
57
52
62
62
60
57
64
71
62
63
61
52
66
51
58
56
63
57
59
62
61
60
58
63
61
53
53
63
58
56
59
62
71
61
52
66
62
69
55
56
52
65
60
61
59
60
59
60
60
60
60
60
60
61
61
58
61
61
61
61
51
62
61
61
62
60
61
61
61
61
61
61
60
60
60
61
61
61
60
60
60
61
62
61
51
62
62
61
61
60
60
60
60
61
60
60
60
60
61
60
61
61
61
61
61
61
60
60
60
62
51
44
56
68
64
63
58
53
62
62
61
61
60
61
58
53
65
54
64
61
58
61
60
54
59
53
64
61
74
63
58
57
55
68
55
60
60
54
55
62
62
61
62
62
60
56
57
61
66
54
58
59
66
63
72
53
67
47
59
63
60
61
60
61
60
60
60
60
60
60
60
61
61
61
61
60
60
60
61
57
62
61
60
60
62
61
51
62
61
61
61
60
60
61
61
61
61
61
61
60
60
60
60
61
60
61
61
61
60
60
60
61
61
61
60
51
63
62
61
61
61
58
61
61
61
60
60
53
62
58
51
58
71
60
64
60
61
56
62
58
57
64
61
58
58
64
61
58
62
62
61
52
51
57
63
49
63
67
40
60
64
54
54
58
63
59
52
62
60
62
66
58
63
60
61
57
67
68
57
58
67
69
68
46
56
59
60
62
61
51
63
51
62
62
61
61
60
60
60
60
61
61
58
61
61
61
62
61
61
60
59
61
61
61
61
60
60
60
61
61
61
61
60
61
61
61
61
61
51
63
62
61
61
61
61
60
60
60
60
60
60
60
60
60
60
60
60
61
61
61
60
60
60
60
61
61
61
61
61
50
67
55
57
58
63
61
51
62
62
61
61
61
61
57
62
61
60
61
61
58
62
58
63
52
62
65
55
57
55
57
57
58
59
62
61
62
62
62
62
60
51
63
56
67
52
68
62
63
54
58
71
54
70
57
60
60
60
60
60
61
61
61
61
61
60
60
60
60
61
61
61
61
61
58
62
58
62
61
60
60
61
61
61
61
61
51
62
62
61
61
58
61
61
61
61
61
61
61
60
61
61
61
61
61
60
51
62
62
61
60
59
61
61
61
61
60
60
61
61
60
60
60
60
61
61
60
60
60
51
60
86
60
60
59
60
52
63
58
61
59
54
56
57
64
52
62
58
63
50
59
63
62
51
62
51
61
54
55
62
59
61
60
61
61
62
51
54
70
51
57
54
66
59
93
55
72
58
71
64
71
51
91
61
59
59
59
59
60
60
60
60
61
61
61
61
61
61
61
61
60
61
61
62
61
51
62
61
61
62
61
61
61
60
51
63
62
61
61
60
60
60
61
61
60
60
61
61
61
61
61
60
60
60
60
60
61
61
61
61
61
61
61
61
61
61
61
61
60
60
61
61
61
60
60
60
61
61
51
70
52
62
57
62
61
61
61
60
61
61
58
59
62
61
59
51
63
65
52
64
62
58
63
71
60
60
54
52
63
51
62
51
57
63
61
62
54
56
58
99
61
49
48
54
67
71
46
46
50
57
66
53
62
62
61
61
61
61
61
61
61
61
61
61
61
61
60
60
61
61
60
62
57
61
58
52
63
62
60
61
61
60
51
63
62
61
61
60
61
61
61
61
61
60
61
61
61
61
61
61
61
61
61
61
61
61
60
60
60
60
61
60
60
60
60
61
61
61
60
60
61
61
61
61
60
60
51
70
60
60
60
60
62
61
61
61
59
54
53
63
62
62
60
61
61
63
52
62
57
62
60
57
57
62
71
43
63
58
62
51
62
57
62
61
44
47
54
99
60
43
53
55
66
71
57
63
72
66
58
65
63
60
59
60
61
60
60
60
60
61
61
61
60
60
60
60
61
61
60
62
61
61
61
59
60
61
61
61
61
61
61
61
61
60
51
63
61
60
60
60
60
61
61
61
61
61
61
60
61
61
60
51
62
62
61
61
59
60
61
61
61
61
61
60
60
60
61
61
60
60
60
61
61
61
56
63
60
61
61
61
61
61
56
54
62
61
62
58
62
61
58
62
60
55
69
62
52
61
63
62
57
60
54
60
58
62
63
51
67
59
56
69
62
60
48
55
50
63
56
62
70
50
67
61
68
58
63
48
61
62
57
63
59
60
60
60
61
61
61
61
61
61
61
61
60
60
60
62
58
61
58
61
61
62
61
51
63
62
61
60
60
60
60
61
61
61
58
62
61
60
60
60
61
61
61
61
51
63
62
61
61
61
60
60
60
61
61
61
60
60
61
61
60
60
61
61
60
60
60
60
61
61
71
53
63
61
60
60
60
61
60
61
60
60
61
61
61
61
61
62
54
57
63
54
62
61
53
59
57
64
53
75
57
62
62
60
99
60
66
69
56
58
61
69
59
68
54
61
65
61
59
52
61
64
43
78
55
61
61
59
61
60
60
61
61
61
60
60
60
61
61
61
61
61
61
62
61
61
61
51
62
62
61
51
63
62
61
60
60
60
61
61
61
51
63
58
52
63
62
61
61
60
60
60
61
61
61
61
61
61
61
61
61
60
60
60
60
61
60
60
60
60
60
61
61
61
60
60
61
61
72
64
60
60
60
59
62
63
61
62
61
61
58
61
61
61
60
65
65
63
48
64
58
58
58
63
51
60
57
62
61
61
61
61
59
44
63
65
58
58
53
71
54
75
56
61
57
63
57
61
61
68
58
53
59
57
61
61
62
51
62
61
61
61
61
61
60
60
61
61
60
59
60
62
58
61
58
61
61
62
61
61
61
60
60
60
58
61
58
62
61
62
60
61
61
61
60
60
61
61
61
60
51
63
62
61
61
61
61
60
60
60
60
61
61
61
60
60
60
60
61
61
61
61
61
61
60
61
74
52
63
62
61
61
61
60
61
62
51
62
62
60
60
53
62
62
53
62
52
47
60
63
69
58
67
61
55
69
60
60
61
58
50
61
62
63
66
58
99
68
60
79
54
61
63
60
71
60
60
59
66
58
59
54
62
57
63
58
62
61
61
61
61
60
60
60
61
61
60
59
61
62
61
61
61
51
62
62
61
61
60
61
61
61
61
59
59
52
64
62
60
62
61
51
62
62
61
61
61
61
51
63
61
61
60
60
60
60
60
60
61
60
61
61
61
60
51
62
61
61
61
60
60
60
61
57
65
64
56
59
58
63
62
65
60
61
61
61
61
61
61
59
60
60
52
55
61
58
65
55
61
63
56
56
63
61
58
56
48
99
57
51
54
61
60
57
96
56
60
62
54
64
68
60
60
60
60
51
90
64
54
56
51
52
56
63
61
62
62
61
60
60
61
61
61
61
61
51
62
62
58
61
61
61
61
61
61
58
61
61
61
61
51
63
58
62
58
61
61
61
61
61
58
61
61
61
60
61
61
61
61
61
61
61
61
61
61
58
52
63
62
61
51
62
61
60
51
63
62
61
51
62
62
67
54
55
63
65
60
51
64
62
56
59
63
62
62
61
62
61
61
60
61
60
61
61
62
57
57
62
61
55
62
58
87
71
53
58
61
60
61
61
68
46
63
54
54
70
63
61
64
61
60
61
50
63
63
63
54
74
52
62
57
63
61
59
60
62
61
60
60
61
61
61
60
59
61
62
57
61
60
61
61
61
61
58
61
61
61
61
60
61
58
61
62
51
63
61
61
61
61
60
60
61
61
61
61
61
61
61
60
60
60
60
61
61
61
60
60
60
61
61
60
60
61
60
61
61
60
60
62
93
62
64
59
60
55
62
61
61
61
62
51
62
61
61
61
61
61
62
57
60
61
61
55
56
64
65
62
61
64
62
65
67
46
59
53
63
60
60
66
60
69
97
49
56
55
63
56
62
59
61
60
61
62
72
63
54
54
61
61
60
61
60
60
61
62
57
62
51
63
61
58
61
62
62
57
61
61
60
60
61
62
61
60
60
60
61
60
62
60
61
61
61
61
61
61
61
60
60
61
60
61
60
61
61
61
61
61
61
60
51
63
62
61
61
61
61
60
60
58
62
61
51
62
62
61
61
74
71
53
53
53
63
62
60
62
61
50
64
51
62
62
61
51
62
51
62
51
63
58
62
63
60
60
53
62
51
63
61
57
55
83
61
52
62
59
61
64
66
69
99
59
57
60
60
65
59
60
60
62
61
63
56
67
59
67
50
62
61
61
60
60
60
61
56
62
62
51
63
57
62
61
62
57
62
61
60
60
61
62
61
61
60
60
60
61
61
60
61
61
60
62
61
61
61
61
60
60
61
60
61
60
60
60
61
51
54
63
61
61
58
61
61
51
63
62
60
59
61
61
61
61
61
60
50
60
56
64
58
51
55
62
61
59
61
60
62
51
54
63
59
58
60
52
63
58
62
62
61
60
60
60
60
61
61
61
61
58
68
57
50
54
63
60
69
47
92
69
56
58
58
55
63
56
61
62
60
62
65
59
61
76
64
54
47
59
59
53
62
58
62
51
62
62
62
62
51
62
61
51
56
63
62
61
60
61
61
61
61
61
61
60
60
59
61
61
61
61
60
62
61
60
60
61
61
61
61
61
60
60
61
61
61
51
54
63
61
57
62
60
61
61
61
61
58
61
61
61
61
61
58
63
67
54
49
61
56
53
63
58
61
61
60
62
61
62
61
59
60
71
61
61
60
59
61
61
60
60
60
60
61
61
61
61
61
57
56
55
62
62
53
55
71
50
88
63
56
62
67
51
54
59
63
59
61
56
63
59
63
58
47
99
62
59
61
60
61
50
62
61
61
61
61
61
54
62
59
61
62
61
60
61
61
60
61
61
61
61
60
60
60
51
63
61
61
61
61
61
61
61
58
61
61
61
61
61
61
61
60
60
60
52
62
61
61
51
62
61
57
62
61
59
59
61
61
61
61
62
60
59
68
50
58
52
63
57
56
63
60
60
60
60
61
62
61
58
60
57
52
57
64
59
61
62
61
61
61
60
60
60
58
61
62
62
66
63
60
60
60
54
61
61
99
57
60
60
56
51
62
64
51
54
62
59
63
58
62
59
72
54
71
58
58
56
62
58
61
58
62
57
62
57
62
62
50
63
52
62
61
61
61
61
61
61
61
61
61
60
60
61
61
60
60
61
61
61
61
60
60
60
60
61
61
61
60
60
60
60
61
61
60
61
60
62
61
61
51
61
59
61
61
61
61
61
61
61
51
65
67
54
61
62
59
61
60
60
60
60
60
62
62
57
61
57
61
56
59
62
55
61
61
61
61
60
59
61
61
61
58
61
62
52
50
57
56
56
55
64
59
59
66
99
58
62
55
60
61
65
61
60
59
64
50
62
58
58
77
64
47
58
68
57
64
59
61
60
61
61
61
57
62
59
52
62
63
57
61
58
61
61
61
62
61
60
60
61
61
51
63
62
61
51
63
62
51
62
51
62
62
62
61
60
61
61
61
61
60
61
50
64
61
61
62
57
62
50
63
58
52
57
57
63
61
52
55
72
61
58
60
61
60
60
60
60
61
58
61
64
62
61
61
61
62
51
62
63
58
63
70
61
63
58
62
60
62
51
64
58
62
83
60
52
62
59
61
61
69
44
75
99
60
60
55
61
61
64
62
61
61
56
60
63
62
62
54
76
64
61
59
56
63
59
62
58
62
61
61
60
61
51
63
62
62
50
55
62
58
58
62
61
61
61
51
55
63
62
61
61
61
61
59
61
62
61
60
61
60
61
60
61
60
61
60
61
61
63
67
61
60
51
55
63
55
61
61
60
52
62
61
60
60
61
59
67
59
58
58
62
61
60
59
61
51
63
62
61
61
62
59
59
61
60
60
55
61
62
54
62
59
61
61
60
61
51
63
51
63
56
60
61
52
62
60
64
63
60
69
57
59
53
57
61
61
64
59
60
61
62
60
60
61
56
51
74
57
56
67
57
62
51
63
58
54
54
63
56
63
60
61
60
60
61
55
62
61
60
61
60
60
61
59
62
61
60
60
61
60
61
60
61
61
61
56
62
60
61
51
62
61
61
60
60
61
77
57
54
65
64
63
62
54
57
58
63
62
85
52
57
63
53
72
55
56
58
62
62
60
51
62
51
63
61
61
61
61
56
55
57
61
62
51
63
63
61
51
62
61
51
62
62
61
62
60
60
51
50
62
60
61
61
61
75
59
99
66
61
56
59
56
58
61
63
59
61
61
59
61
62
61
61
43
66
58
85
58
50
56
56
57
57
56
56
56
58
57
55
57
57
64
57
62
62
59
61
60
60
61
60
60
61
60
60
60
60
60
61
60
60
61
61
62
61
62
52
61
60
61
61
61
60
61
55
63
60
59
59
62
62
51
63
61
57
56
52
57
57
58
51
67
67
64
55
61
61
61
58
63
58
61
60
57
62
57
62
58
62
60
61
60
61
61
53
63
56
64
54
56
57
56
62
60
60
60
62
64
60
65
63
64
67
56
99
49
59
61
60
56
62
61
63
61
54
56
56
63
61
56
63
61
60
83
56
55
48
81
59
60
61
55
64
60
60
60
60
57
63
61
51
54
62
62
60
61
60
60
60
60
61
62
61
61
61
61
51
63
62
61
62
51
62
64
54
63
63
63
63
74
55
62
52
57
63
61
61
62
60
60
60
61
60
61
61
59
60
60
66
59
64
57
62
57
61
58
61
60
61
61
61
61
61
60
60
62
61
58
61
62
62
61
61
58
61
61
61
61
60
60
47
57
50
47
57
57
57
56
56
59
63
80
60
56
52
62
52
55
62
62
58
64
62
57
55
57
64
63
58
56
61
78
67
52
50
53
52
59
58
57
70
56
77
55
59
63
62
53
56
62
61
62
55
63
58
61
62
61
61
58
61
61
61
61
61
61
58
62
61
61
51
52
63
56
54
56
63
60
63
61
52
63
57
62
56
56
63
62
60
61
60
60
60
60
61
61
65
58
56
57
62
61
61
61
61
61
60
60
60
60
61
61
61
61
61
61
61
61
62
61
61
61
61
61
61
61
60
60
68
62
78
56
65
64
64
63
64
53
54
62
71
56
61
60
62
58
51
63
56
60
55
61
51
64
63
61
57
61
60
57
88
58
60
60
63
59
57
64
77
62
59
58
59
61
68
60
58
52
64
62
61
54
62
57
61
62
51
62
61
61
60
61
51
62
62
63
60
60
60
56
67
56
62
52
56
64
61
57
63
55
56
56
57
57
66
54
63
61
53
54
55
56
58
57
66
57
53
56
63
61
61
58
61
61
60
61
60
61
60
61
60
61
60
58
61
62
51
54
63
61
61
61
61
61
61
60
60
62
57
55
52
58
54
60
58
66
58
59
79
52
66
62
54
57
51
63
66
46
53
59
55
63
59
54
63
61
60
55
69
66
57
81
63
50
57
63
59
53
55
57
57
59
53
62
56
59
62
61
61
55
54
54
67
58
63
61
61
60
60
62
51
61
61
62
60
61
60
62
62
60
61
57
62
61
51
62
61
62
61
62
60
61
60
60
61
61
58
59
58
61
60
67
54
55
62
56
63
57
61
58
61
60
61
61
61
61
61
61
61
61
60
61
51
62
62
61
61
61
61
60
60
60
60
61
60
73
91
61
52
65
50
65
55
64
60
99
64
54
65
59
57
58
58
55
68
60
56
52
65
56
54
62
61
54
63
58
53
58
54
64
63
62
63
51
68
56
53
63
65
54
59
46
57
62
62
61
52
55
58
63
61
55
62
51
55
63
62
58
60
59
61
54
63
57
63
70
62
58
52
61
61
61
61
58
58
61
59
56
57
58
60
55
57
54
60
56
64
63
60
76
60
62
60
62
61
61
61
61
58
61
61
61
58
62
57
62
50
63
61
60
62
61
63
62
59
59
60
60
60
60
60
60
59
55
54
63
61
61
60
55
55
69
69
99
54
56
68
53
47
53
56
58
57
63
57
59
59
61
59
59
56
45
60
60
69
76
63
59
58
57
58
62
61
61
58
62
72
56
53
62
65
52
54
60
62
62
62
61
55
61
62
60
61
59
59
61
63
55
57
52
56
63
59
68
61
61
62
61
61
60
63
52
62
55
62
62
61
61
61
60
62
60
51
55
62
60
50
61
62
63
51
63
62
61
61
61
57
62
57
62
61
61
61
60
60
60
61
60
62
57
57
52
62
60
60
60
60
60
60
61
59
68
63
63
55
56
57
61
64
57
66
60
46
53
59
66
49
71
54
62
62
63
47
52
63
62
62
53
58
57
59
63
62
65
57
57
61
63
74
51
58
54
52
58
65
61
49
55
49
62
44
45
65
52
56
62
62
56
59
61
56
61
54
62
55
57
53
55
57
62
55
66
61
60
52
52
55
64
63
63
61
62
60
72
61
51
54
63
62
61
61
61
62
58
69
49
55
57
63
62
60
60
60
61
59
59
60
60
61
60
60
60
60
60
51
62
63
58
64
57
60
60
60
60
60
60
60
60
58
99
58
59
59
59
60
60
72
59
53
74
99
63
66
55
61
53
56
52
58
59
63
57
56
56
63
53
60
55
56
57
72
61
64
58
57
57
53
53
65
61
60
56
54
57
57
61
52
55
61
62
61
57
54
55
59
64
62
55
58
59
56
56
45
61
60
60
60
63
62
61
56
64
63
58
64
55
60
52
56
63
52
64
63
62
62
51
54
63
58
54
59
63
67
47
60
65
62
62
57
61
62
63
61
61
60
60
61
57
62
57
62
58
61
60
62
61
63
57
62
61
61
60
60
60
61
61
56
45
62
62
65
65
63
65
99
62
51
80
99
63
54
62
67
55
60
52
64
61
55
55
57
50
67
57
64
51
55
57
71
58
65
52
46
63
58
56
64
54
68
61
57
64
57
66
63
58
55
56
64
61
54
56
64
63
62
61
63
63
60
55
58
57
64
56
64
59
58
57
60
60
54
55
56
62
64
54
62
51
63
52
56
62
59
55
57
61
60
55
45
65
63
57
54
64
57
61
60
60
61
61
61
60
60
60
61
61
59
59
60
59
60
61
59
62
58
61
60
59
60
61
61
61
61
61
54
58
55
57
53
63
63
60
78
61
99
75
56
51
69
64
57
57
59
60
58
63
62
61
57
65
55
57
62
59
53
55
61
63
61
67
61
69
57
64
59
61
61
60
60
61
60
61
60
60
61
61
61
60
61
60
61
60
61
60
61
60
60
60
61
60
61
60
60
61
60
60
60
61
60
61
60
60
60
61
54
57
63
50
55
62
60
61
61
61
61
51
63
66
61
54
62
54
62
58
62
61
60
60
51
62
62
61
60
65
60
51
56
61
60
60
61
62
61
58
61
60
60
60
51
62
62
61
64
67
53
62
60
61
60
61
64
69
99
63
56
62
57
57
61
62
50
62
64
57
62
61
61
48
63
58
60
55
63
60
59
59
61
67
65
54
61
65
62
61
60
60
60
61
60
61
61
60
51
63
51
62
62
62
60
51
63
62
61
51
62
62
51
54
62
61
60
61
60
61
61
61
57
62
58
61
61
61
51
63
51
56
62
61
61
61
61
51
63
51
62
66
51
61
54
56
63
61
60
60
60
60
61
61
51
63
61
61
60
51
63
58
52
62
61
62
61
58
61
59
60
60
51
62
62
61
52
62
61
61
61
60
60
56
63
57
66
58
63
96
55
62
58
72
57
55
58
63
60
62
62
61
50
64
59
63
57
61
61
61
61
52
68
59
66
61
62
62
60
61
51
55
63
61
62
61
51
62
62
58
61
62
61
58
61
61
61
61
51
55
63
61
61
58
62
58
62
57
62
60
51
63
61
60
61
61
61
61
62
58
60
62
60
61
61
61
60
60
65
72
57
55
63
62
60
62
61
61
60
60
60
51
63
57
63
57
62
61
61
59
60
60
58
63
61
58
60
60
60
60
60
60
60
60
86
60
59
59
61
51
62
71
53
60
61
77
68
51
65
51
62
71
60
63
61
60
62
61
61
56
57
62
64
46
66
61
58
62
58
52
75
67
57
89
55
60
51
62
51
63
58
62
61
62
61
58
62
61
51
54
63
58
62
58
62
61
58
61
61
60
60
61
60
60
60
61
60
61
60
60
60
60
61
60
60
58
60
61
59
61
61
61
60
61
51
62
69
54
59
56
58
63
60
61
61
60
60
61
61
61
61
60
60
60
60
61
61
61
61
61
61
62
61
57
61
61
61
58
61
61
47
63
58
55
55
54
62
61
60
60
52
87
65
99
64
55
66
59
59
70
54
64
63
61
61
61
57
62
57
62
56
63
52
55
57
62
61
55
55
53
62
63
53
63
62
61
58
62
58
60
61
51
63
58
62
58
62
58
61
62
51
63
62
57
62
57
63
60
60
60
61
61
61
61
59
61
60
62
60
61
60
61
60
51
63
61
57
62
61
58
62
62
61
59
74
53
55
67
61
62
60
60
59
60
60
60
61
61
61
61
61
61
59
60
60
60
61
61
61
62
57
58
62
61
61
60
58
54
62
83
59
60
59
52
63
51
62
69
52
99
68
56
40
61
60
59
61
70
62
62
56
63
62
61
60
61
60
61
63
57
61
53
56
65
50
64
57
92
60
53
56
53
63
51
54
61
61
60
61
60
61
61
60
60
60
60
61
61
60
61
61
60
61
61
60
60
60
61
59
60
59
52
63
62
58
62
61
60
60
60
61
60
61
60
61
58
62
57
62
61
61
61
61
50
62
54
59
62
58
61
61
61
61
60
60
60
61
61
61
61
60
60
60
60
61
61
62
62
61
58
61
61
61
61
49
63
58
65
59
61
61
61
61
62
61
71
70
99
67
65
60
66
61
60
59
70
53
64
62
61
60
61
61
60
61
61
69
61
51
63
62
55
62
61
51
68
56
66
61
62
59
62
61
60
62
62
61
63
59
55
56
64
61
60
61
61
60
60
60
61
61
51
62
61
60
61
60
61
51
63
61
51
63
61
61
61
60
62
60
59
62
60
61
60
61
60
61
61
51
62
65
58
66
64
60
60
59
60
59
60
60
60
61
61
61
60
62
61
61
60
60
60
60
60
61
62
61
51
62
61
62
61
61
52
53
45
63
61
60
61
59
55
73
58
34
70
62
54
64
65
50
57
63
66
61
63
63
61
62
57
62
61
61
61
62
61
52
73
67
57
56
64
68
61
72
50
69
57
57
63
61
61
60
61
58
62
51
62
51
63
62
60
61
61
60
61
61
60
61
60
61
61
60
60
51
63
58
61
61
61
60
61
62
62
60
62
60
61
61
51
63
51
62
62
61
61
62
61
55
59
47
64
58
55
68
40
64
59
61
60
60
60
60
61
50
63
58
62
57
58
62
51
56
58
45
61
61
61
60
61
55
61
99
49
61
50
62
61
51
62
70
58
48
66
57
59
62
62
60
60
59
71
54
63
56
61
61
60
60
60
60
60
61
60
60
60
61
63
54
56
61
63
69
53
46
60
62
63
61
60
60
61
61
61
51
63
61
57
61
61
62
61
51
63
58
52
62
62
61
51
63
51
55
62
61
61
60
61
61
60
61
60
62
60
52
63
60
60
61
60
60
60
61
60
61
60
61
55
72
60
63
58
52
71
60
61
58
60
60
60
60
60
60
60
60
51
62
62
58
62
58
57
44
61
61
60
61
61
61
64
58
43
56
64
61
60
61
60
70
63
58
73
57
56
62
50
44
65
61
73
63
62
57
57
57
57
56
62
61
61
60
62
60
61
55
63
68
56
60
55
59
60
56
64
58
63
63
60
60
59
62
62
61
61
60
61
62
61
62
61
60
61
60
61
61
59
61
60
61
61
61
61
61
51
62
62
61
58
61
61
60
61
57
60
61
61
60
60
60
61
60
51
63
61
51
63
62
63
56
61
46
65
59
60
60
60
60
60
61
61
50
62
58
62
60
61
61
63
57
65
50
62
59
60
60
60
58
58
52
62
62
61
62
61
60
43
66
56
99
93
45
64
58
62
64
59
59
71
54
63
62
59
61
60
60
61
61
61
61
61
58
61
58
62
55
69
67
49
62
71
49
59
67
56
63
58
61
51
54
59
62
58
61
51
54
62
62
61
61
61
56
61
61
62
59
61
60
61
61
61
60
60
61
60
60
61
60
54
63
55
62
60
62
61
60
59
59
61
59
62
60
60
44
53
57
66
62
64
61
56
58
62
61
61
60
60
60
60
61
58
61
60
60
60
61
61
60
64
50
63
61
59
60
60
64
48
54
54
63
60
53
55
62
63
64
71
99
65
60
56
62
60
62
54
62
57
65
52
63
62
58
61
51
62
61
62
59
62
60
61
63
57
51
58
64
66
62
56
61
55
69
61
61
61
60
62
51
62
61
51
63
62
61
62
51
63
51
54
63
57
62
61
51
63
58
62
51
57
62
60
61
61
61
60
60
60
60
61
61
58
62
51
63
58
62
58
62
60
60
61
60
61
61
61
58
61
71
61
59
74
54
52
53
63
61
62
51
61
61
51
63
62
61
61
62
61
57
60
60
60
60
60
57
78
50
65
60
60
61
60
60
66
58
56
67
56
61
63
63
60
64
55
61
61
60
61
61
58
62
62
61
51
63
50
55
64
59
61
51
63
62
61
65
51
56
63
71
55
57
47
66
59
62
50
62
52
63
58
54
62
61
61
57
62
61
61
60
60
61
60
61
60
61
61
60
61
60
57
62
51
54
62
62
61
58
61
59
52
62
60
61
60
61
61
61
61
59
61
58
61
60
61
61
61
62
61
62
64
61
57
59
60
61
61
61
60
60
60
60
62
61
62
62
62
50
61
61
61
61
61
55
50
64
62
51
55
63
61
51
73
58
41
62
61
64
56
54
55
55
62
58
55
62
63
60
61
61
51
54
62
63
61
61
61
60
61
60
61
61
60
60
56
64
61
58
64
72
49
57
63
58
62
60
59
60
60
60
61
61
60
61
61
61
61
60
60
60
62
61
62
58
61
61
60
61
51
63
60
61
60
61
57
62
61
61
60
60
61
61
61
61
61
61
57
62
60
62
61
58
62
51
63
58
63
53
64
55
57
53
63
58
59
61
60
60
60
60
62
61
62
62
61
57
60
61
61
61
61
53
52
61
61
52
63
62
58
62
68
47
56
58
52
59
65
61
62
64
60
60
55
62
61
60
61
60
61
59
62
61
62
60
62
62
55
55
67
58
62
63
61
55
57
57
49
63
64
64
56
62
63
51
63
58
61
62
61
60
62
59
61
60
61
62
59
60
52
62
60
61
61
61
60
58
61
61
60
61
60
52
56
63
62
51
62
51
62
58
61
60
62
61
60
61
60
61
59
61
61
51
64
65
65
55
73
47
57
63
57
57
52
61
59
59
62
61
61
51
63
62
62
57
61
61
61
61
61
53
62
53
56
56
61
61
61
64
55
60
51
53
57
63
57
61
61
58
52
63
60
59
63
61
61
57
62
52
62
61
51
62
57
62
58
61
61
59
63
61
59
69
62
63
59
59
54
57
59
58
63
57
63
51
62
51
63
51
63
57
63
61
62
61
62
51
63
62
61
62
61
55
61
61
61
62
61
62
60
62
55
64
43
54
62
52
63
62
50
63
51
62
61
61
59
62
62
61
55
62
59
58
60
60
63
68
54
50
57
62
55
60
56
56
62
60
61
61
54
65
50
56
63
62
50
57
53
96
58
50
62
51
62
61
61
73
59
55
99
70
58
59
55
55
63
62
50
62
60
61
51
56
57
62
60
63
60
60
51
62
58
63
61
50
63
57
53
63
50
62
58
57
64
62
56
43
57
63
51
64
58
62
56
62
62
60
53
62
58
63
61
54
59
52
63
51
64
62
57
64
57
63
60
52
55
65
50
57
63
60
58
57
62
61
50
62
60
61
60
61
61
51
54
56
63
62
60
61
70
66
56
55
51
59
62
65
54
63
63
55
55
60
61
52
58
62
61
62
72
61
57
54
64
51
63
65
65
53
62
61
60
61
50
74
47
63
55
51
57
65
61
51
63
61
60
61
61
61
60
54
63
60
61
56
62
60
62
54
61
62
51
67
58
55
61
55
61
59
52
63
61
73
73
51
66
56
62
61
63
60
64
55
57
64
63
59
56
63
51
61
62
61
61
60
61
60
61
60
62
54
58
56
61
56
63
61
57
53
63
60
61
61
59
60
61
56
56
63
51
62
61
62
57
62
62
60
73
57
50
44
58
64
57
57
57
62
54
63
60
61
60
61
60
57
56
61
61
61
52
64
62
56
55
57
63
58
62
60
62
61
58
66
73
54
70
47
60
62
59
65
61
60
60
60
61
61
60
60
60
57
61
60
59
61
60
52
62
60
61
57
62
61
60
60
61
54
57
51
63
56
69
54
61
60
58
51
63
60
59
62
51
62
62
61
61
57
60
62
61
61
62
55
61
55
64
58
73
55
62
57
57
62
53
65
61
55
56
61
58
62
62
61
50
56
62
61
61
61
58
62
52
63
61
61
71
59
54
56
57
60
60
57
58
57
64
64
54
56
63
57
62
60
54
64
51
63
62
68
60
54
60
61
57
57
62
56
62
59
60
58
54
60
74
71
66
51
64
63
61
54
58
58
57
56
56
53
64
62
59
61
60
62
61
61
61
60
61
62
61
62
62
61
50
64
62
51
60
60
74
60
59
57
60
61
61
52
44
52
57
62
59
60
62
61
58
60
62
61
60
60
62
60
60
61
62
51
63
70
65
58
61
60
51
64
58
63
51
57
60
62
61
63
62
59
62
62
61
57
61
52
51
60
72
59
53
62
60
59
63
82
53
58
66
55
62
61
51
62
61
61
61
55
57
57
53
50
55
62
63
61
61
62
57
56
63
61
63
58
53
99
65
55
63
58
62
60
60
61
63
59
61
56
56
62
51
64
61
61
61
51
62
50
55
62
61
63
53
62
61
67
61
62
49
63
62
56
68
59
55
61
58
62
60
63
57
62
63
57
62
61
51
51
72
63
60
50
60
58
68
52
63
62
61
61
62
61
63
62
61
62
61
61
53
62
59
61
51
56
63
51
63
58
62
61
59
63
57
63
51
63
66
62
54
72
57
52
62
64
71
64
53
57
63
61
61
58
60
60
61
65
63
56
63
56
56
58
44
55
57
68
61
53
55
57
76
57
56
99
73
50
57
61
62
61
51
62
55
62
62
61
60
60
58
55
62
51
63
51
56
56
64
51
63
62
55
56
65
57
63
59
53
53
57
55
59
99
62
58
55
51
54
63
59
61
52
62
61
52
56
62
43
53
62
62
51
63
62
61
62
62
60
59
60
62
51
65
51
63
61
57
62
61
57
51
63
58
62
61
58
61
60
61
50
55
64
60
61
54
76
58
61
60
61
58
60
53
56
77
62
56
56
61
60
61
60
60
60
54
60
53
54
54
52
59
62
64
60
62
58
61
61
61
72
60
52
60
74
39
58
58
63
56
64
57
62
58
63
52
55
61
51
63
61
56
58
53
56
63
61
51
62
61
55
62
59
62
63
61
51
56
62
63
57
59
58
55
67
56
65
51
57
61
61
61
60
61
60
53
57
63
63
55
60
61
62
50
55
55
62
62
56
62
57
57
62
61
61
51
61
60
60
61
60
61
61
55
60
56
55
63
60
62
54
62
62
60
69
54
57
56
63
59
59
49
64
49
63
54
56
65
52
58
62
61
61
61
61
57
53
55
62
56
61
44
63
56
55
56
56
53
68
64
64
53
53
66
58
54
64
51
55
65
61
62
60
62
59
59
62
61
61
49
64
49
56
58
64
52
63
61
61
61
54
64
55
58
61
55
63
49
93
59
61
48
67
49
53
45
62
56
64
61
63
61
62
60
54
59
64
62
43
66
61
61
61
51
55
62
65
52
47
64
59
63
62
54
66
62
50
63
56
61
62
61
58
60
63
62
52
64
62
51
63
61
72
60
55
61
61
63
59
52
54
62
59
62
58
71
60
58
55
63
51
60
59
60
55
62
61
56
61
44
62
62
62
60
51
65
53
70
58
73
47
57
57
64
65
53
61
60
58
57
63
51
63
61
51
62
57
63
62
62
59
62
51
57
63
55
73
61
50
64
51
45
53
63
54
53
63
66
63
63
53
51
52
63
55
62
61
61
55
62
57
53
64
51
64
60
63
51
64
61
62
57
51
55
63
61
53
52
56
53
62
61
59
60
59
59
61
52
53
62
52
62
49
53
53
63
52
64
61
61
62
51
63
63
61
58
59
60
64
51
53
47
58
83
46
61
56
61
65
61
50
56
62
52
58
56
52
64
58
52
56
63
61
69
61
71
99
56
98
60
59
58
52
62
52
57
59
63
62
58
54
67
61
56
62
78
47
63
49
56
52
55
65
62
61
60
61
51
56
59
52
63
61
61
62
62
56
52
62
53
66
62
61
60
53
62
61
61
57
52
58
52
63
51
56
64
61
59
55
56
53
58
56
64
58
51
64
55
58
58
64
56
62
59
56
63
57
60
51
56
56
64
62
66
61
61
60
61
60
63
62
74
61
61
58
59
63
56
62
44
65
65
61
69
58
46
64
58
62
52
63
63
61
61
59
59
60
52
63
62
62
59
56
52
58
58
59
55
61
60
61
57
62
54
63
43
57
57
62
63
62
50
59
56
58
62
61
54
56
52
64
62
51
56
58
62
62
59
62
61
49
62
62
54
66
62
56
53
57
56
63
52
63
63
57
62
59
56
56
64
65
61
62
61
58
63
58
52
63
62
69
60
60
60
59
61
61
57
63
71
56
53
58
53
54
64
62
51
55
57
55
64
55
63
57
63
58
63
60
58
53
53
54
57
57
57
57
52
60
79
50
73
56
45
66
57
59
60
60
62
52
60
55
52
45
57
63
76
62
60
54
57
56
56
57
60
55
60
61
63
56
62
56
54
65
59
61
63
56
57
66
62
52
57
60
64
59
63
61
54
55
64
57
56
56
56
58
58
57
64
65
63
56
59
52
61
63
56
53
55
57
58
58
56
55
60
56
58
58
65
63
50
64
56
57
64
63
61
65
63
55
55
56
63
59
44
64
62
62
61
61
61
59
60
63
57
62
57
64
61
60
65
60
61
59
63
59
62
57
59
52
61
60
61
62
63
61
73
57
68
60
63
60
62
54
56
59
51
58
54
56
57
46
52
63
62
59
70
58
67
60
58
63
64
61
62
57
58
63
62
52
51
64
51
54
73
49
63
50
57
62
49
63
52
63
61
63
61
61
56
61
60
54
62
82
55
60
51
61
58
53
63
61
60
53
61
61
60
52
56
54
62
56
61
55
56
63
54
52
56
55
55
63
55
51
56
62
61
61
61
63
54
62
62
58
62
62
51
63
61
64
61
54
63
70
59
59
63
58
55
61
52
66
62
51
64
57
57
63
58
58
63
59
60
62
64
58
63
62
55
62
58
56
58
53
62
50
57
63
61
61
60
58
51
63
64
58
51
45
63
55
65
62
63
61
61
61
61
56
55
58
67
62
60
62
61
49
55
57
63
61
57
61
55
66
62
64
61
54
66
52
55
56
60
56
62
61
90
60
59
63
51
55
74
61
62
61
61
51
55
61
63
55
54
57
58
53
53
57
50
66
63
58
61
50
61
54
63
51
58
62
51
56
65
58
63
60
62
63
61
61
62
60
62
60
69
52
58
53
55
59
52
45
62
59
58
56
60
66
62
44
54
64
70
54
61
57
56
57
53
63
62
61
58
62
52
62
61
53
64
56
77
63
56
44
61
61
59
64
55
63
61
61
52
57
55
61
62
58
57
62
57
60
62
60
60
62
68
51
62
55
55
56
56
57
57
53
57
63
53
58
63
62
59
51
64
63
61
58
60
58
57
59
58
59
53
63
60
64
50
56
58
64
61
52
59
63
56
60
62
61
60
60
54
52
53
62
55
52
64
61
62
58
58
52
55
63
50
56
45
53
65
57
62
61
61
56
54
59
56
56
52
57
63
60
52
64
62
56
61
63
72
60
50
67
61
62
61
61
60
54
60
62
66
56
60
52
62
55
56
59
54
58
61
64
57
56
46
60
63
70
63
61
51
57
68
60
58
61
52
61
51
62
61
53
63
62
61
61
67
61
51
63
64
61
61
57
62
63
49
65
43
54
58
63
63
59
60
58
58
57
57
63
57
63
57
47
63
52
56
57
65
62
63
62
61
56
63
62
51
62
61
62
58
72
50
43
51
56
65
51
58
63
56
61
60
61
61
55
63
64
63
56
56
63
58
54
59
63
52
63
56
59
56
54
54
54
66
59
77
56
62
65
55
64
61
67
49
63
62
54
56
83
60
50
62
61
60
62
55
58
61
57
62
62
67
61
50
54
63
56
73
61
61
63
63
51
63
57
61
63
56
62
61
51
62
57
53
54
55
65
56
63
62
54
59
63
59
51
58
62
55
62
53
62
61
61
57
57
55
61
63
56
64
49
63
62
51
56
63
63
66
61
54
60
62
53
57
63
56
62
61
64
65
62
50
72
63
60
61
61
61
61
51
51
58
56
57
55
58
63
57
63
62
61
58
70
61
58
55
58
65
60
64
62
59
61
67
57
55
63
65
59
59
54
66
57
59
61
57
62
55
51
58
56
63
67
61
59
60
65
61
62
52
61
52
55
65
62
62
49
64
56
63
60
61
50
61
53
55
66
62
63
63
52
55
63
52
56
63
61
56
55
64
60
56
55
61
55
65
62
55
55
62
68
53
59
65
55
62
61
57
64
58
58
59
62
64
61
60
61
51
64
62
52
56
67
56
58
61
51
55
56
63
51
63
59
62
55
63
51
62
88
60
62
60
51
63
51
54
63
52
62
60
59
55
63
62
56
45
60
46
62
63
51
75
65
62
61
50
63
59
65
59
58
68
54
64
57
63
64
56
55
57
69
51
60
61
66
56
60
65
63
56
59
63
64
64
56
51
62
56
59
61
50
62
56
62
62
61
59
55
58
63
55
63
65
54
51
62
62
60
54
52
58
58
63
55
61
51
62
76
53
62
54
81
51
58
58
54
55
62
50
64
61
62
53
63
62
56
53
64
62
56
57
61
58
62
62
51
63
61
56
62
65
56
56
63
55
60
55
62
61
62
63
61
61
62
59
65
53
51
58
58
57
63
63
54
61
46
64
55
62
60
63
61
61
60
61
60
51
63
56
59
54
53
56
64
64
63
62
53
55
57
59
62
62
60
60
54
58
64
57
55
61
63
62
48
63
52
53
53
57
64
63
60
55
65
54
55
59
62
61
55
66
48
63
55
63
57
57
57
63
66
61
52
51
65
60
61
60
74
57
58
56
64
61
57
57
64
61
61
63
61
62
61
57
55
62
53
61
52
64
51
58
61
52
55
62
56
45
66
50
58
55
64
62
60
53
55
64
54
63
56
61
54
55
75
54
63
56
58
56
59
56
60
55
52
57
67
56
58
68
58
61
51
62
62
52
58
61
65
61
50
55
63
57
64
62
64
62
59
59
63
49
57
53
63
65
55
56
62
63
60
57
63
58
58
54
55
66
54
54
64
52
53
58
61
63
57
50
50
55
65
59
62
62
62
62
62
64
50
58
63
64
62
51
78
63
67
63
61
62
52
53
59
58
62
64
61
55
57
62
61
62
72
62
56
52
65
60
60
60
49
56
62
58
52
56
61
61
68
54
56
62
53
54
54
66
60
53
64
58
64
61
65
57
53
57
59
56
63
62
63
55
50
55
56
57
64
67
60
61
51
58
60
53
54
71
62
62
68
56
71
62
56
62
57
58
59
60
67
53
75
64
56
71
62
61
57
54
63
51
61
51
62
51
86
62
60
60
60
60
55
62
46
55
56
56
60
66
61
52
51
58
51
90
57
43
53
52
64
52
60
55
63
61
60
60
58
62
55
57
61
55
53
55
55
65
61
54
57
63
62
55
63
64
53
54
54
57
56
56
60
52
58
55
45
60
63
57
59
58
56
55
77
60
61
56
60
59
64
58
66
61
52
63
57
65
51
63
64
51
54
57
59
54
58
65
51
62
61
61
57
61
59
61
41
58
47
61
63
56
51
58
67
51
60
61
60
61
57
64
61
60
61
61
61
61
60
55
61
61
62
51
63
64
51
55
55
58
60
64
62
62
51
54
58
57
65
56
56
65
63
49
62
53
59
62
51
64
59
57
52
66
52
68
51
55
59
58
56
58
64
58
56
58
55
63
62
64
61
64
49
57
45
59
63
58
55
56
64
55
64
63
51
51
57
65
61
63
61
50
44
55
52
54
61
78
61
55
71
61
52
65
57
63
51
63
62
61
57
59
59
61
65
61
51
56
52
64
59
61
60
61
79
61
60
51
63
61
51
64
63
50
53
61
58
45
66
62
57
63
59
59
59
53
73
61
63
56
64
60
61
74
57
57
62
51
63
62
50
65
61
53
55
57
65
62
50
58
63
63
61
61
59
63
62
51
58
58
64
58
53
62
53
45
60
54
62
67
56
58
63
55
56
64
62
51
51
57
63
61
51
62
62
62
54
67
50
62
57
64
