59
60
60
61
60
60
61
61
61
60
60
60
60
60
61
61
61
60
60
60
60
60
61
61
61
61
61
61
60
60
60
60
60
60
61
61
61
61
61
61
60
60
60
60
61
61
61
61
61
61
60
60
61
61
61
60
61
61
60
60
61
61
60
60
60
60
61
60
61
61
60
60
60
60
60
60
60
60
60
60
60
60
61
61
60
60
60
60
60
60
61
61
60
60
60
60
61
61
61
61
60
51
62
62
61
61
60
60
60
60
61
61
61
58
61
61
61
61
58
61
58
61
61
61
58
61
61
61
58
61
61
61
61
60
61
61
61
61
51
62
61
61
61
61
51
63
61
51
62
62
51
62
62
61
61
61
61
60
60
60
61
61
60
60
60
61
60
60
60
60
60
60
60
61
61
61
61
61
60
60
60
61
61
61
61
60
60
60
61
60
61
60
60
61
60
60
61
61
61
61
60
51
63
62
61
60
51
63
58
61
61
61
61
60
60
61
61
61
61
61
51
63
62
61
58
61
61
51
63
62
61
58
61
58
62
58
62
62
61
51
62
62
61
61
61
58
61
61
61
61
61
61
61
61
61
60
60
61
61
60
60
60
60
61
60
60
60
60
61
60
60
60
60
60
60
60
60
60
60
60
60
61
60
60
60
60
61
61
60
60
61
60
60
60
61
61
61
61
61
61
60
61
61
61
60
60
61
61
61
61
60
60
60
60
62
60
61
60
60
61
61
51
63
62
61
51
62
61
51
63
62
61
51
63
62
61
61
61
58
52
63
62
61
61
51
63
61
59
61
61
61
61
61
61
61
60
51
63
61
60
60
61
61
61
51
63
62
61
61
60
61
61
61
61
61
61
61
61
61
60
51
63
61
60
60
61
60
60
61
60
60
60
60
60
60
60
60
60
60
60
61
61
61
60
60
60
60
61
61
61
60
60
60
60
60
60
61
61
61
61
61
61
61
61
60
60
61
61
61
61
51
62
62
61
61
61
60
61
61
61
61
61
51
62
62
61
61
61
60
60
60
60
61
61
61
61
61
61
61
61
61
61
61
61
61
59
61
61
61
60
60
60
61
61
61
61
60
60
61
61
61
61
61
60
61
61
61
60
60
60
61
60
60
61
60
60
60
60
61
61
61
61
61
62
60
51
62
61
61
58
61
58
61
60
61
61
61
59
60
59
60
60
61
61
61
60
60
60
61
61
61
61
61
61
51
62
62
61
58
61
62
61
62
61
60
60
60
60
60
61
61
61
58
61
61
62
61
61
61
61
60
51
63
61
61
61
61
60
60
60
61
61
61
60
60
61
60
60
61
61
61
61
61
60
60
60
60
60
60
60
60
60
60
60
60
60
60
61
60
60
59
62
63
56
66
59
59
60
58
60
59
60
60
60
60
61
61
61
61
51
62
62
61
61
61
58
61
61
61
61
61
60
51
63
62
61
61
60
61
61
61
58
61
62
61
61
51
62
62
61
61
61
51
62
61
61
61
61
61
51
63
61
59
60
61
73
58
60
60
61
61
54
62
59
58
62
61
61
61
61
60
60
60
61
60
60
60
60
61
60
61
60
60
60
60
61
60
60
61
61
61
61
51
62
61
51
63
62
61
61
60
60
61
60
60
60
61
60
60
60
61
60
60
60
61
60
60
60
58
59
61
60
61
57
64
63
55
50
58
62
58
61
58
61
62
61
61
61
61
61
61
61
61
61
60
51
62
62
61
61
61
61
61
61
60
60
61
59
61
61
61
61
61
61
60
51
63
61
61
61
60
60
60
61
61
60
60
60
60
60
60
60
60
55
57
56
63
62
62
62
53
56
62
57
63
61
61
60
60
60
61
61
61
61
60
61
58
52
62
61
61
61
61
61
60
60
60
61
58
61
61
61
61
61
61
61
61
61
60
60
61
61
58
61
62
61
62
60
61
51
62
62
61
60
58
61
69
53
62
54
61
59
54
54
61
93
61
59
60
59
60
59
60
60
60
60
60
61
61
61
61
61
61
61
61
60
60
60
60
61
60
60
61
61
60
61
60
60
61
61
60
61
61
61
61
61
61
61
61
60
60
60
60
60
60
61
61
61
60
63
55
63
91
68
65
63
60
63
67
58
54
65
53
63
63
59
60
60
61
61
61
60
60
61
60
61
58
62
61
61
61
51
63
62
61
61
61
58
61
61
61
58
61
61
58
61
61
61
61
60
60
60
60
60
61
61
61
61
60
60
60
60
60
72
63
54
93
58
67
57
69
48
61
61
63
59
58
60
60
62
60
51
62
62
61
61
60
60
60
60
61
61
61
61
61
60
60
60
61
61
62
61
60
51
62
61
60
60
61
61
61
61
61
60
60
61
60
51
63
62
61
64
64
63
63
64
64
69
59
58
50
57
60
59
61
62
59
63
57
57
60
71
53
59
59
54
63
58
61
61
60
60
61
61
61
60
60
61
61
61
60
61
60
60
61
60
60
60
61
61
60
60
60
60
61
60
60
60
60
60
61
60
60
60
65
55
56
58
56
61
53
66
99
61
61
65
63
60
54
55
62
48
59
66
61
63
57
52
52
62
62
61
51
63
62
61
61
61
58
61
61
61
61
61
61
61
61
61
61
61
61
58
61
61
61
61
60
60
60
60
61
61
61
61
61
60
60
62
60
53
62
57
58
63
61
58
87
61
62
61
62
62
61
53
60
58
61
61
54
61
58
58
54
59
55
63
60
60
60
60
60
60
60
60
60
60
61
61
61
61
61
60
59
60
61
61
60
60
60
60
61
61
60
60
60
60
61
60
61
60
63
64
62
62
61
62
57
58
63
63
62
62
53
64
63
62
52
57
65
65
62
46
54
59
72
53
54
55
55
57
63
59
60
60
60
60
60
60
60
60
61
61
61
61
61
61
61
61
61
60
60
60
60
60
61
61
60
61
60
61
61
60
60
69
57
53
62
56
62
51
62
51
56
58
51
47
62
59
58
62
58
52
66
56
53
58
66
58
63
61
62
60
51
63
62
61
61
61
51
63
62
62
61
61
51
63
58
61
61
62
61
60
51
62
61
62
61
61
59
60
61
61
61
51
63
56
73
59
62
51
63
52
63
61
61
61
54
63
64
77
68
55
64
62
65
61
55
62
43
57
58
64
61
54
62
59
60
60
60
61
61
61
60
60
61
61
61
51
63
61
60
61
61
61
61
60
60
60
61
60
60
61
60
60
61
61
63
60
50
68
59
60
56
62
53
55
64
60
59
60
62
55
56
99
65
63
50
58
65
61
70
62
53
52
56
66
58
59
60
60
60
60
60
61
61
60
60
61
58
61
61
61
61
61
61
61
61
58
61
51
62
62
61
61
60
60
58
61
61
61
61
62
65
56
53
55
60
54
63
53
62
59
62
61
62
62
61
47
61
57
51
68
60
56
61
46
63
62
56
63
55
62
60
60
60
60
61
61
61
61
60
60
60
60
61
61
61
60
61
61
60
60
61
61
61
61
61
60
61
61
61
60
61
61
61
68
61
51
56
62
61
61
60
61
61
61
62
58
56
63
52
61
61
57
61
54
66
54
62
57
61
59
69
52
54
63
60
53
63
59
60
60
60
60
61
61
61
61
61
61
61
61
61
61
61
60
60
61
61
61
61
60
61
61
60
51
62
61
70
60
59
60
61
55
63
60
59
59
61
61
61
61
61
52
62
57
57
62
62
55
59
52
64
62
62
55
64
57
63
60
60
60
60
60
60
60
60
60
60
61
58
62
61
61
58
61
61
61
60
51
62
62
61
61
60
51
62
62
61
61
61
51
64
62
61
60
63
63
52
64
62
58
61
62
50
63
59
60
63
60
69
60
61
55
58
59
75
60
55
61
57
93
59
58
59
60
60
60
60
60
60
61
61
60
56
62
61
61
61
61
61
60
60
61
58
52
63
62
61
60
60
60
61
61
61
61
71
60
54
53
63
57
59
53
45
56
63
62
61
51
54
63
53
85
55
63
59
63
59
62
60
57
59
73
54
64
53
62
62
62
61
51
62
62
61
61
62
61
53
62
62
58
61
61
61
61
61
61
60
60
60
60
60
61
61
61
61
61
61
61
62
71
56
56
61
61
60
57
52
64
61
53
55
62
58
61
62
39
61
63
58
64
51
46
50
60
63
68
60
55
50
63
53
55
63
60
60
60
61
58
58
57
52
62
61
61
60
61
61
61
61
60
51
62
62
61
61
60
60
61
61
60
51
62
61
53
68
68
56
63
51
64
63
66
59
60
54
57
69
64
61
53
58
53
64
62
59
60
71
64
63
58
61
52
59
63
61
60
60
61
61
61
60
62
58
61
61
60
61
60
60
61
61
61
61
60
60
51
63
61
60
59
61
61
60
60
60
61
61
61
62
65
57
63
62
62
60
56
55
61
51
57
60
66
67
54
56
63
62
63
50
53
74
46
73
64
57
49
63
59
61
60
60
60
60
61
61
61
57
62
62
61
60
61
61
61
61
61
61
61
60
60
60
61
61
60
61
61
61
60
60
60
61
61
62
74
59
60
54
56
63
52
61
61
51
66
51
57
62
55
58
63
62
62
61
93
57
61
84
51
74
55
62
59
61
59
60
60
60
60
60
62
61
61
60
60
61
61
61
61
61
61
60
61
61
61
60
60
60
60
61
61
61
61
58
61
61
61
60
70
60
60
61
59
62
59
61
62
54
61
63
95
56
60
60
62
48
61
52
80
58
59
56
62
72
55
62
58
59
61
61
61
61
61
60
62
61
51
62
62
61
60
61
61
60
61
61
61
61
60
51
62
62
61
61
60
60
60
60
60
60
60
58
74
54
57
55
63
50
62
54
57
51
60
60
62
60
67
61
61
62
62
65
65
57
58
59
54
66
69
56
56
62
51
63
61
61
61
60
61
58
61
61
61
58
61
51
51
83
62
59
51
62
62
61
60
60
60
59
61
61
61
61
59
61
61
56
65
53
62
54
63
62
61
60
62
62
61
52
63
62
54
55
99
57
52
71
72
84
59
58
61
58
74
49
58
63
61
55
62
61
61
61
61
61
61
60
51
62
62
60
60
51
63
51
62
62
61
61
61
61
61
62
61
61
60
58
52
62
61
89
58
52
55
56
62
63
60
60
61
63
61
55
53
63
62
60
56
55
62
66
61
70
60
59
60
63
55
55
59
58
60
60
62
52
62
60
53
62
62
61
60
61
61
61
61
61
61
60
60
61
61
61
61
52
62
60
61
59
59
59
60
60
56
69
72
61
58
62
62
62
60
50
55
61
61
62
61
60
61
47
53
62
63
98
55
71
61
62
61
61
62
67
60
56
71
61
60
61
55
63
61
57
61
60
61
61
61
61
60
61
57
61
61
61
61
60
60
60
51
63
57
63
61
62
61
50
78
52
41
64
57
63
59
60
61
61
55
62
62
61
61
60
61
99
49
63
72
99
58
68
64
59
59
61
51
63
57
56
58
61
53
55
63
56
63
60
61
61
61
51
62
61
61
62
61
51
62
61
61
51
63
51
63
59
62
61
51
55
56
63
64
61
61
59
60
56
60
54
63
56
55
55
63
51
63
62
61
45
65
62
77
64
56
72
63
58
59
52
57
54
72
53
56
57
63
61
61
61
61
55
62
60
61
61
61
61
60
60
61
60
60
61
60
62
61
60
83
60
60
57
62
55
57
70
54
62
62
61
56
54
62
62
59
53
65
59
59
61
60
62
57
52
53
63
72
59
59
65
61
51
51
62
55
57
74
47
60
65
64
52
55
62
62
62
60
60
60
60
61
60
61
60
60
62
56
54
62
59
55
61
61
61
60
61
61
61
61
56
61
62
62
61
60
61
60
60
51
57
64
57
61
60
60
64
56
59
62
62
62
53
63
68
50
57
56
55
58
75
63
59
54
76
56
66
71
57
61
63
61
54
61
57
62
60
59
61
63
61
60
60
61
60
60
58
59
59
54
56
56
57
66
58
52
56
62
61
60
60
60
60
58
52
55
62
61
61
60
62
48
44
45
69
69
55
63
57
59
55
64
56
62
56
62
77
60
73
57
56
64
63
53
59
62
50
62
55
62
61
64
67
61
58
62
57
57
54
62
61
62
57
52
63
63
61
62
61
60
60
61
58
60
52
54
62
62
51
56
62
61
61
61
55
58
62
55
99
99
64
59
57
54
55
18
61
57
59
69
64
54
68
58
56
57
58
56
58
60
63
62
48
62
57
55
70
51
63
70
53
55
62
60
55
57
64
62
67
61
56
58
62
61
60
60
60
59
59
52
62
61
61
60
61
61
61
60
99
60
59
60
67
99
47
55
58
53
71
52
54
58
73
62
60
77
65
60
61
65
54
56
52
56
59
54
57
66
63
44
62
62
62
58
58
60
59
58
63
54
63
61
56
64
63
54
63
61
61
61
62
51
55
57
62
61
61
51
61
60
51
63
99
58
51
54
68
56
54
56
62
53
63
62
55
55
60
62
60
66
54
56
60
61
61
61
61
60
61
60
60
60
61
60
61
60
51
55
63
61
61
60
61
60
61
61
57
62
74
47
56
56
63
60
63
61
62
50
62
62
61
51
61
52
63
51
57
61
61
62
61
97
65
59
66
60
56
62
61
63
52
51
57
59
73
53
54
64
58
62
57
62
58
61
61
60
60
61
60
60
60
60
61
60
60
60
60
62
60
60
61
58
68
60
61
61
57
61
61
61
60
59
59
62
63
50
62
61
57
53
52
56
63
68
57
49
54
70
68
54
62
61
58
62
64
48
51
63
72
55
59
59
62
62
58
62
61
52
63
60
61
60
61
62
51
63
61
57
61
61
61
61
51
55
63
62
67
51
53
63
58
62
61
61
60
60
59
62
56
52
61
61
61
78
58
51
54
71
99
57
57
55
64
60
58
62
61
61
61
76
61
61
53
66
55
58
62
61
61
61
60
59
61
61
61
61
61
63
61
60
61
61
61
62
61
61
60
61
61
60
63
66
51
62
56
62
61
61
51
62
51
63
55
63
60
60
51
59
60
60
60
68
99
63
64
57
68
54
58
62
59
60
61
61
55
62
61
72
59
58
57
61
60
62
61
59
62
51
63
51
63
58
62
61
62
51
54
62
63
51
55
63
51
63
61
56
65
56
58
62
60
59
60
60
61
62
63
50
62
58
53
62
61
60
57
61
66
46
57
63
58
55
52
63
70
61
61
61
51
56
62
57
66
56
52
62
60
60
62
61
60
61
62
51
62
61
60
64
55
63
63
62
60
60
60
51
54
63
61
51
62
67
61
53
62
51
56
56
63
58
57
63
60
60
96
59
59
62
67
61
70
54
64
54
60
60
61
61
61
62
62
58
52
63
62
54
74
58
52
63
58
62
61
61
61
61
61
51
62
61
59
51
62
61
51
62
62
58
62
62
58
61
61
63
57
63
54
62
52
56
61
62
51
62
64
51
62
58
77
60
61
58
75
58
67
53
60
59
61
60
61
59
61
61
61
59
59
58
52
63
56
62
58
57
63
51
63
51
57
63
61
61
57
52
63
57
63
57
45
63
59
62
61
61
51
55
63
61
63
55
60
64
41
65
66
60
63
61
61
61
56
62
52
56
62
61
67
99
54
53
62
60
61
60
60
64
60
73
60
61
60
60
51
63
62
62
45
58
58
57
53
64
59
59
51
57
63
60
62
62
59
59
60
62
59
58
62
60
61
61
60
60
62
53
58
65
65
56
65
61
59
58
62
58
59
55
55
56
63
60
61
81
58
56
64
62
61
60
60
55
62
51
63
54
63
61
51
56
63
66
53
59
52
63
61
58
53
57
63
55
59
63
63
60
62
55
47
53
63
62
44
53
65
61
60
60
60
55
51
53
58
60
65
56
61
60
56
54
67
86
60
50
62
53
56
63
56
56
67
43
64
56
62
61
71
67
60
61
61
62
61
60
51
67
67
55
51
58
61
56
55
63
62
61
63
61
62
61
56
62
60
61
51
56
62
60
61
61
61
60
95
59
56
52
54
84
62
68
61
61
61
54
51
48
67
60
54
74
53
74
54
55
61
72
54
64
60
52
62
57
61
62
51
59
62
60
59
62
90
58
59
63
61
73
50
56
62
51
63
56
52
63
59
62
61
61
61
50
63
62
61
60
62
60
69
65
57
62
62
64
52
68
66
61
58
52
63
64
62
51
61
66
58
58
56
55
62
54
52
64
55
56
61
60
58
52
56
63
60
57
63
52
56
47
49
54
73
63
60
59
63
60
59
61
61
61
61
62
53
57
63
52
62
61
52
54
62
61
58
59
59
55
63
62
62
56
60
53
63
51
63
56
52
62
58
57
57
59
57
57
53
60
57
57
63
56
63
58
62
61
61
61
61
61
60
61
60
58
45
63
56
57
58
61
61
59
60
61
60
60
61
60
61
62
60
56
55
57
57
56
60
62
74
61
70
57
64
61
56
57
58
55
57
57
53
55
64
59
59
55
55
64
59
63
61
51
55
54
63
52
55
63
62
61
51
64
61
61
58
52
62
57
56
66
56
62
61
57
63
51
62
51
60
65
62
62
50
64
51
62
52
63
52
51
63
51
78
61
63
65
62
58
59
57
57
53
53
62
56
61
61
61
62
56
60
56
63
61
58
60
52
63
58
62
60
61
56
52
58
62
65
55
64
60
65
62
60
56
56
63
61
52
56
56
64
59
56
98
58
58
51
56
58
61
43
65
77
61
60
43
70
67
54
60
61
58
51
70
58
57
55
56
76
61
57
63
68
61
61
58
55
61
55
57
62
58
59
63
58
60
57
62
52
59
53
55
62
61
59
62
76
54
57
62
62
55
63
57
57
62
51
63
57
63
56
62
52
62
62
61
58
57
57
62
73
54
58
58
58
58
57
76
61
60
61
62
99
57
59
62
70
61
70
61
61
64
56
61
60
62
50
62
53
63
62
61
60
51
54
65
61
63
60
53
55
52
57
78
57
62
75
59
62
63
52
59
63
62
58
62
62
61
60
51
55
64
60
61
68
54
58
52
66
63
52
73
58
62
57
62
99
49
61
61
69
62
67
53
54
82
56
52
65
59
62
62
58
64
59
63
61
61
62
60
51
55
56
65
61
58
54
57
65
51
91
60
57
62
57
62
63
61
61
60
62
59
55
62
61
57
55
63
60
62
55
63
61
60
57
77
59
51
58
74
59
57
45
60
59
60
64
58
63
59
61
61
58
61
64
61
60
59
61
61
74
50
56
59
52
63
50
62
60
52
55
58
57
55
63
55
59
63
57
58
55
65
58
61
