67
77
73
76
71
72
72
71
69
72
71
72
68
71
70
73
72
71
72
68
68
68
76
69
73
74
75
68
71
72
67
70
67
72
72
70
72
74
70
73
68
70
79
70
72
69
75
67
74
76
74
71
74
75
75
70
74
69
69
77
75
71
72
74
74
67
66
70
68
72
77
76
67
77
69
72
75
75
75
70
72
69
73
74
74
72
68
73
76
75
69
71
66
69
73
69
70
65
68
69
74
77
75
70
72
70
77
67
74
74
69
73
76
75
72
71
70
78
68
69
71
72
74
73
70
71
67
66
67
74
70
72
70
72
74
76
74
71
71
72
72
99
69
72
71
73
76
69
70
71
67
70
76
68
73
66
73
69
74
74
64
67
74
72
68
75
70
71
69
72
72
75
81
70
69
99
68
71
74
77
67
75
67
72
69
72
71
71
72
72
71
68
72
70
73
78
76
72
73
71
73
72
71
72
84
81
70
73
69
79
71
66
68
71
70
73
73
76
71
72
70
70
75
67
74
74
76
70
72
68
73
67
75
77
75
92
83
60
65
72
99
71
71
68
68
70
70
70
73
72
69
72
67
74
72
72
68
70
72
74
74
67
75
66
79
89
99
99
78
71
68
93
79
68
81
65
73
70
77
68
74
70
72
73
75
75
74
63
70
70
67
72
71
71
73
99
99
69
71
93
86
76
99
71
75
69
66
77
82
70
68
72
78
72
72
72
71
72
66
77
72
76
76
71
71
67
91
73
72
77
71
75
64
79
88
67
66
88
96
74
70
66
67
69
77
72
74
75
71
68
60
67
71
72
74
68
69
83
68
76
77
69
69
76
80
63
99
75
79
75
94
68
70
70
79
77
70
69
74
69
73
69
67
74
69
73
67
67
90
69
68
65
70
71
73
67
72
69
99
68
80
99
77
69
70
76
71
72
71
71
67
73
67
68
73
68
73
72
74
71
63
67
77
83
73
75
74
73
68
99
74
71
69
86
73
69
70
79
68
75
77
78
69
74
70
73
71
72
76
75
71
69
88
99
69
70
71
69
73
67
86
77
74
99
86
78
70
98
66
69
74
69
81
81
70
73
65
73
72
70
68
68
71
70
66
93
70
70
75
69
65
82
73
81
78
64
68
66
65
71
72
79
71
73
72
70
72
74
72
69
74
66
70
68
69
68
69
99
74
81
72
68
65
99
67
72
69
66
64
99
68
68
68
78
74
71
71
74
72
69
78
73
69
71
68
75
74
66
77
70
75
72
67
73
69
71
76
69
69
99
73
70
93
71
66
71
99
74
71
74
68
69
71
70
65
69
99
67
71
70
78
96
70
76
69
71
72
71
81
64
80
60
69
66
72
73
66
68
83
72
70
68
74
73
70
72
70
74
72
99
99
77
93
70
66
78
92
99
77
68
73
99
77
80
69
79
73
68
99
80
78
74
71
71
72
71
74
99
80
99
73
66
69
69
99
68
71
77
72
85
72
77
67
74
85
70
71
69
65
99
71
83
92
91
71
96
70
72
73
76
69
71
72
99
72
76
77
71
66
71
75
75
71
73
67
76
99
67
67
67
68
87
91
68
71
75
80
85
66
73
70
99
87
68
70
74
79
87
70
71
72
74
71
75
72
67
81
81
74
70
67
71
74
70
75
68
70
74
70
97
85
75
73
69
77
81
70
67
72
99
69
71
71
71
74
68
70
75
80
71
64
72
64
71
75
71
74
67
72
73
79
73
75
73
70
70
76
79
70
74
76
99
68
72
71
77
79
71
67
70
72
86
63
72
69
66
78
70
74
75
71
71
79
72
71
73
69
79
88
70
67
76
77
69
72
66
96
72
69
69
75
78
76
68
74
99
69
68
80
70
77
99
76
64
72
74
69
70
71
68
72
80
76
76
72
77
74
67
99
73
98
74
64
74
79
68
68
99
67
72
71
82
69
68
91
62
73
70
72
76
99
79
71
79
68
71
81
71
68
72
85
99
67
75
79
78
78
99
79
64
69
72
80
69
67
89
72
74
69
73
71
84
74
73
84
72
95
69
72
71
81
84
72
99
70
80
69
75
94
99
69
77
72
99
90
75
77
98
69
80
99
89
73
88
72
65
99
65
70
99
67
71
94
77
79
99
99
76
69
73
72
72
72
67
76
70
75
69
69
99
77
73
75
79
75
71
73
71
69
80
74
76
70
99
99
67
71
80
87
75
65
73
78
88
67
77
74
66
69
69
70
73
70
80
76
82
78
85
77
73
75
79
99
69
67
71
95
92
92
75
65
89
70
74
72
79
78
79
71
74
73
82
99
88
73
85
72
69
99
72
75
73
77
78
