70
73
69
69
70
69
76
71
72
74
68
74
76
75
69
72
69
77
67
70
70
71
67
72
70
68
58
67
67
67
70
68
69
70
77
69
71
69
74
69
74
69
67
72
68
74
74
67
74
68
76
72
69
70
77
71
73
68
69
77
72
69
65
68
82
75
74
72
69
66
71
69
66
73
75
74
68
69
71
72
69
66
75
67
71
73
79
69
72
73
72
74
67
73
74
68
70
69
72
72
69
73
68
72
68
72
72
73
66
73
77
75
70
74
76
71
65
72
70
68
73
69
73
72
72
76
69
72
72
73
70
72
76
67
75
68
70
76
75
70
71
70
73
68
71
68
81
76
74
68
74
75
66
72
70
72
74
72
68
73
75
74
69
69
68
69
81
77
70
72
66
71
76
68
67
77
70
74
72
68
68
73
74
67
72
74
78
69
72
73
69
73
68
73
69
68
75
67
70
72
71
73
71
68
74
69
71
70
74
71
73
73
63
68
71
69
69
73
64
71
72
79
77
75
72
69
72
67
68
71
69
67
70
72
73
71
71
77
71
72
66
74
75
70
69
68
72
70
73
68
71
68
69
67
75
74
74
71
72
69
67
75
75
70
67
69
70
70
70
74
70
73
71
71
72
74
70
71
67
69
74
68
71
73
75
75
70
69
76
72
74
69
72
68
69
84
69
72
72
71
71
68
70
68
75
74
70
69
68
73
73
71
69
73
73
74
74
72
68
73
68
87
73
76
72
66
72
67
71
68
74
67
68
73
75
65
69
73
71
73
74
74
73
69
71
73
76
75
69
72
69
76
75
71
72
73
78
75
73
70
73
73
66
71
72
73
68
72
75
73
69
70
69
73
74
78
76
74
71
68
75
70
73
76
76
70
67
69
71
70
69
72
73
74
74
71
73
74
75
67
72
71
81
72
69
71
70
75
74
74
69
72
74
75
66
74
75
68
68
74
74
73
69
73
65
67
68
79
75
73
71
72
72
68
74
70
67
75
69
72
75
69
73
68
63
70
68
71
73
70
69
72
68
65
72
68
71
74
76
72
67
74
66
71
69
70
70
81
69
73
73
76
69
72
74
75
71
72
75
66
72
75
69
69
77
73
69
71
70
76
70
67
73
68
82
76
75
68
69
74
68
75
72
74
69
73
76
67
71
69
72
67
73
72
68
73
73
77
75
71
72
74
66
72
68
83
68
73
78
75
68
73
73
76
72
71
71
74
75
73
66
66
72
70
70
71
71
75
67
73
72
69
73
72
74
66
74
72
72
72
66
71
73
73
72
69
70
71
77
76
69
72
71
73
68
75
73
64
67
71
77
72
73
63
69
68
74
73
73
64
72
68
71
73
69
69
75
75
70
72
72
77
82
79
99
99
72
70
70
78
70
72
77
76
72
66
73
74
69
72
68
66
68
74
73
67
73
64
72
67
65
72
68
67
68
71
68
70
69
72
69
74
74
66
74
77
71
69
70
72
72
72
75
68
69
72
73
68
76
67
74
70
72
73
75
77
73
68
71
69
71
76
77
70
68
75
73
77
71
72
69
73
71
73
72
68
75
68
73
74
67
73
66
69
68
75
67
75
73
73
69
69
69
72
70
74
68
73
75
67
75
78
69
72
69
68
74
68
74
70
78
69
72
69
72
68
67
69
78
99
69
74
72
73
64
78
99
69
71
73
77
76
68
72
72
69
69
67
72
73
70
72
66
69
74
75
66
68
70
71
74
74
74
69
72
67
69
69
72
72
68
68
73
74
68
70
69
81
70
72
68
74
68
73
68
70
77
70
73
70
70
69
99
68
69
65
72
75
72
71
76
86
75
68
71
71
73
75
76
69
76
68
67
75
68
73
69
75
67
70
71
72
71
72
68
65
70
67
71
67
75
72
70
77
69
72
72
68
73
63
72
70
74
72
69
70
72
71
75
72
68
73
68
66
71
67
99
71
75
69
78
68
64
74
79
69
72
71
73
67
69
80
71
69
66
71
68
80
75
68
72
68
74
79
76
71
63
67
68
74
74
68
72
76
75
70
71
73
76
75
73
74
68
71
72
73
76
68
70
72
73
75
72
68
72
65
68
64
75
74
85
68
68
99
67
70
69
75
99
96
74
66
65
73
67
76
80
74
69
68
71
68
69
69
68
80
75
67
71
70
71
72
66
68
74
76
74
74
68
71
72
70
72
74
69
74
72
71
75
72
71
74
72
71
75
76
74
71
70
66
80
71
72
76
75
67
74
69
79
65
84
76
89
79
91
64
77
98
67
75
66
73
70
77
75
69
73
75
73
69
73
65
67
67
60
67
83
74
74
69
75
77
75
66
72
72
75
74
73
70
69
69
73
69
66
70
73
81
78
70
83
84
90
66
83
70
99
72
71
81
74
99
75
80
70
72
80
76
64
90
68
74
89
89
67
77
72
72
70
70
71
71
71
68
70
73
72
70
73
76
71
71
69
70
74
76
70
72
69
69
69
69
73
69
72
68
65
70
68
68
71
79
77
70
71
73
70
73
79
78
99
78
64
77
83
75
78
68
75
95
87
67
78
65
82
99
74
71
99
68
70
79
76
71
68
65
73
71
73
74
79
75
74
64
73
68
75
68
75
74
75
69
68
75
74
67
69
69
65
73
69
67
68
69
78
76
67
90
81
93
69
68
79
72
66
73
99
85
83
76
78
98
76
68
71
76
72
66
66
76
82
66
74
99
74
72
80
68
71
71
76
74
68
73
67
68
81
70
69
69
72
72
68
72
72
73
73
75
70
73
74
79
76
69
73
69
78
72
74
66
99
87
77
97
67
72
71
69
72
99
73
69
90
78
75
66
62
74
72
78
68
75
73
72
82
71
65
74
80
72
71
71
72
73
68
72
74
66
72
68
72
75
69
72
70
76
67
74
70
72
68
68
74
70
70
72
74
66
68
77
73
72
71
78
80
72
82
72
70
68
72
72
71
74
75
85
81
76
81
72
66
70
79
75
73
81
73
74
70
69
77
78
73
71
72
67
70
74
74
72
73
73
69
68
73
73
75
69
74
73
67
73
72
68
68
74
66
73
68
69
81
76
67
75
74
80
95
65
82
67
73
70
70
74
75
64
71
89
90
84
99
75
86
69
72
67
98
82
80
99
93
88
64
66
71
73
74
69
72
73
75
74
70
68
72
72
70
73
75
74
70
66
67
69
79
69
72
74
67
68
75
69
70
70
72
73
73
68
99
77
70
72
74
90
67
73
74
69
73
73
73
86
76
69
75
80
70
75
85
82
89
68
86
74
77
74
68
70
69
68
70
78
76
69
72
75
69
72
68
70
73
69
71
72
73
63
70
75
71
69
78
69
72
75
75
73
70
68
73
72
77
87
99
92
83
70
74
75
68
70
74
71
74
73
73
70
74
80
71
74
64
99
70
66
98
67
70
70
71
99
65
72
71
73
69
71
76
75
74
70
68
72
75
73
70
74
67
73
72
82
79
70
72
75
75
69
72
69
77
76
70
77
71
73
70
80
70
73
70
67
72
70
79
77
69
74
69
69
75
73
72
75
69
71
81
68
86
67
74
73
75
79
68
68
75
69
73
69
73
75
75
69
72
67
70
78
74
64
72
70
73
69
73
76
75
67
74
74
76
75
71
72
73
71
75
74
66
74
74
72
70
76
87
78
69
66
78
74
72
75
73
69
72
83
75
72
77
78
79
80
83
80
79
77
71
99
75
68
78
83
76
70
74
75
73
69
71
74
74
68
73
69
80
78
68
73
78
75
73
63
72
68
69
68
74
73
74
70
66
65
70
70
82
74
89
79
70
75
71
85
89
71
85
65
89
69
72
70
66
67
99
84
71
84
92
69
63
93
67
67
86
93
67
79
71
69
74
74
74
70
71
68
72
67
75
64
68
72
69
74
72
70
72
75
73
70
71
68
70
74
73
68
73
71
68
71
79
67
69
71
84
77
92
79
74
72
72
71
84
99
73
71
67
99
71
69
76
74
75
68
76
78
77
65
70
74
67
69
70
72
73
68
69
71
67
69
80
93
88
67
70
73
71
68
73
66
72
70
76
72
68
73
74
71
69
73
78
73
66
74
70
99
86
74
68
81
70
71
99
76
71
70
73
69
80
99
78
75
99
63
87
83
99
88
70
84
63
70
71
64
86
68
72
80
70
72
73
70
72
74
78
73
71
71
72
74
77
68
72
69
73
77
72
65
76
75
74
70
65
66
69
69
80
70
73
71
99
79
70
67
77
73
99
98
71
70
75
72
77
74
70
85
75
64
75
78
71
69
66
70
72
69
78
85
70
74
70
71
69
75
72
68
72
75
66
73
78
72
64
72
74
66
71
75
73
67
70
73
74
73
69
69
74
77
69
75
73
68
73
78
71
76
67
69
73
70
70
83
72
67
65
69
65
82
93
70
70
73
85
74
68
67
95
71
73
71
66
66
71
70
73
80
73
75
70
74
68
69
69
67
75
75
68
70
72
68
68
73
74
66
74
68
68
68
77
69
73
68
73
74
69
73
75
74
69
99
67
67
77
73
76
73
71
75
69
99
70
81
99
78
73
73
78
68
77
66
70
67
99
65
69
63
72
72
70
67
83
75
71
69
69
71
69
76
67
72
70
70
68
73
69
70
75
71
71
69
67
74
75
67
73
73
76
71
67
74
75
71
72
72
73
72
71
78
68
74
73
81
85
73
70
77
70
81
71
93
73
72
87
63
65
66
79
72
75
63
78
72
71
76
69
68
70
72
74
74
69
71
68
67
68
69
69
72
79
73
65
69
76
72
69
70
77
74
63
71
70
72
71
72
70
71
71
67
73
69
71
75
71
73
69
84
70
70
74
76
98
79
71
71
78
85
69
78
68
64
77
75
72
69
85
73
74
72
73
78
75
69
71
79
71
70
69
69
72
67
70
68
66
71
84
76
70
73
74
71
70
73
69
73
70
72
69
72
69
73
96
69
65
79
82
74
73
75
69
71
72
78
72
99
70
99
70
65
68
75
81
99
79
62
68
69
73
99
72
71
72
85
70
73
72
74
69
75
72
69
71
73
73
71
71
68
75
73
72
72
69
73
69
71
72
63
75
76
74
70
74
69
73
70
99
83
68
75
76
99
70
73
66
71
76
71
99
67
76
87
73
66
68
67
79
77
81
67
65
72
70
76
69
69
78
78
73
71
70
72
72
71
70
72
70
70
68
74
68
75
75
72
70
67
70
73
71
74
72
69
71
78
68
71
70
68
73
80
72
88
68
68
67
75
82
68
70
78
67
72
73
69
75
72
69
70
75
82
70
64
77
71
69
68
78
69
78
99
75
74
71
69
92
69
71
70
71
77
66
67
73
70
73
67
75
76
68
70
73
67
70
66
72
68
72
68
70
69
70
74
71
87
99
90
68
72
65
71
75
79
70
97
66
69
72
72
68
68
66
74
71
91
67
67
89
66
78
71
77
75
99
69
66
74
75
80
79
71
68
71
69
77
69
67
73
68
69
75
70
68
74
68
73
67
69
70
86
71
66
76
70
68
99
70
72
88
68
72
71
72
84
69
74
69
69
71
72
82
69
71
69
70
84
71
79
99
84
64
80
70
68
77
80
65
79
85
64
70
76
74
71
81
77
70
68
99
68
78
69
71
72
74
81
76
74
92
73
70
74
71
75
78
69
72
71
66
78
80
86
76
70
75
75
76
72
75
92
79
71
73
85
70
67
73
69
66
71
73
68
99
99
70
77
64
99
69
95
87
99
73
70
75
70
69
72
72
75
99
74
77
70
72
71
77
72
74
76
74
81
69
77
68
74
99
70
71
71
99
81
77
71
77
74
81
69
71
73
73
76
71
72
71
70
76
73
71
72
74
74
69
67
66
69
68
82
66
69
69
73
88
74
99
68
69
67
99
64
66
75
88
66
99
73
99
83
68
69
70
74
77
75
99
73
73
69
94
75
71
72
73
71
73
79
71
86
81
99
66
70
72
78
71
73
76
73
67
69
74
70
74
74
74
71
78
93
80
80
70
73
75
66
96
69
77
77
72
70
68
99
65
65
67
99
77
99
99
84
76
72
80
67
67
72
95
74
70
74
96
73
69
76
66
78
91
99
77
99
71
74
80
71
65
69
79
75
76
68
72
70
77
72
70
69
73
69
68
67
73
70
70
99
71
73
77
66
65
87
85
74
64
73
81
67
69
74
99
75
99
99
88
68
75
74
71
63
75
89
93
82
62
70
82
76
76
69
75
72
70
74
79
68
95
80
72
74
70
72
80
75
68
80
68
69
68
72
75
70
69
74
68
64
70
75
70
80
76
74
92
79
67
71
65
69
78
68
79
79
68
74
97
71
70
71
76
82
73
70
75
73
78
77
78
88
78
73
81
71
98
79
71
73
99
69
74
78
69
77
87
73
70
74
76
73
68
72
69
72
74
78
68
73
78
73
70
73
93
80
99
99
92
81
74
74
72
80
72
80
73
84
71
70
74
74
69
68
71
72
73
71
72
68
68
72
77
72
68
68
68
75
73
67
77
76
67
75
90
72
70
70
68
84
81
75
66
70
69
72
80
72
68
70
72
70
68
71
73
77
68
72
69
69
84
69
71
80
73
81
68
87
69
77
99
70
72
72
73
94
62
71
78
71
70
72
66
72
73
72
69
76
72
70
70
67
68
75
71
72
71
71
69
73
73
72
69
99
67
72
74
74
73
69
76
68
69
69
67
83
65
72
73
71
74
68
73
68
99
65
99
64
79
70
63
72
75
75
74
84
73
72
84
97
73
71
69
81
74
73
71
68
70
69
67
72
72
72
75
72
71
72
74
70
77
66
70
70
66
70
70
62
79
70
73
72
75
75
75
71
72
68
74
72
61
66
71
69
69
74
72
74
97
65
72
77
69
77
64
71
70
77
68
71
79
99
86
72
68
99
67
70
99
70
82
74
70
71
72
70
73
72
72
76
70
69
73
79
72
69
75
70
75
73
71
96
60
65
71
69
70
69
70
72
70
74
75
73
64
70
68
99
70
74
74
71
78
77
70
72
71
78
65
71
71
71
70
73
79
81
71
95
97
67
75
67
78
75
71
66
74
73
67
70
74
79
77
73
74
74
68
79
73
70
74
70
75
75
69
68
89
78
81
67
65
69
74
69
71
72
70
69
62
67
72
94
70
76
94
77
79
78
67
73
70
79
72
71
71
72
71
70
71
89
90
80
72
82
66
73
71
70
75
70
74
70
72
69
70
75
67
70
80
73
70
66
99
67
76
72
75
75
68
75
70
70
99
99
85
72
76
72
71
72
74
77
68
70
71
74
71
76
71
74
66
74
74
68
89
75
70
76
72
68
69
69
82
69
81
90
91
99
63
68
80
70
73
76
73
69
72
72
87
75
71
79
72
74
75
70
74
78
70
70
70
68
80
73
74
75
77
78
69
66
99
74
71
74
73
71
66
71
75
65
70
69
77
98
81
75
80
71
68
91
69
72
75
70
71
69
74
99
69
82
85
88
85
94
71
74
66
75
74
70
72
70
70
68
69
74
70
73
71
77
74
76
74
75
69
73
69
72
68
77
86
61
75
71
72
72
69
80
70
85
62
86
69
64
76
68
68
96
65
66
73
70
76
72
99
81
66
72
69
86
72
69
80
83
77
76
95
65
71
71
72
70
73
73
69
78
77
77
73
73
77
99
70
69
77
73
77
75
80
70
67
67
68
82
76
64
81
82
83
79
77
72
72
75
80
89
74
84
72
68
72
99
73
68
99
88
75
66
70
73
71
74
71
75
81
72
99
69
71
71
80
68
68
69
74
97
67
69
71
69
73
85
71
76
73
99
74
86
67
75
99
71
81
72
99
72
71
90
80
65
67
76
76
81
76
68
71
84
71
73
70
68
72
69
75
76
74
66
73
78
80
70
68
71
72
72
67
99
73
69
94
76
71
77
73
69
79
72
70
74
79
68
73
71
70
75
74
72
72
79
85
71
67
70
68
71
76
88
69
73
73
75
73
71
66
74
74
75
84
67
75
73
69
93
70
71
75
95
94
66
73
75
70
99
78
71
83
74
75
99
70
71
68
68
73
99
81
68
73
74
81
94
70
99
87
79
72
68
84
73
68
65
75
75
72
77
70
67
82
78
73
74
83
70
71
71
88
82
66
70
70
66
99
94
69
66
68
74
70
81
92
74
83
74
87
77
70
70
72
66
84
73
66
77
77
74
75
81
68
72
80
76
77
71
73
99
68
72
71
80
71
80
81
99
72
91
76
91
91
79
76
70
65
72
75
73
85
71
73
74
66
93
66
82
76
99
74
67
69
68
66
78
68
71
71
72
73
85
76
68
68
75
74
91
79
80
66
76
75
72
76
80
69
77
77
84
73
73
69
72
91
73
99
74
81
65
94
79
72
99
69
73
80
75
75
74
73
80
70
74
70
72
84
77
70
86
64
73
72
67
72
92
71
73
66
66
82
75
71
69
79
62
74
69
96
68
72
68
98
86
69
70
70
70
99
77
99
75
72
79
74
70
72
65
84
76
76
71
99
77
69
79
99
69
95
78
67
78
70
73
70
83
70
69
69
69
68
70
73
71
63
83
78
99
70
83
69
68
68
64
70
71
68
92
62
70
69
73
88
74
91
86
69
83
76
69
76
82
62
81
78
91
72
76
69
95
74
74
89
71
75
71
72
74
77
80
72
82
70
73
76
69
74
88
99
69
66
73
97
84
77
71
78
62
82
69
70
79
99
77
78
80
85
65
98
73
76
81
63
79
73
77
67
74
70
82
68
71
64
73
75
75
99
99
66
68
77
93
68
92
80
81
99
74
82
70
80
69
75
73
75
73
90
99
65
80
72
73
74
99
70
70
69
80
99
82
72
63
93
69
80
68
86
70
72
69
99
70
72
73
88
99
65
99
67
71
99
70
80
67
77
82
72
68
99
82
73
79
72
85
99
71
92
71
70
99
66
77
71
82
79
76
76
71
94
70
72
75
76
99
71
72
78
75
83
79
76
99
91
77
85
65
90
72
81
70
96
86
74
99
65
67
66
80
67
99
68
92
73
85
79
70
80
71
91
78
99
99
77
99
81
92
81
71
73
85
74
72
78
74
83
66
74
68
75
69
82
75
79
71
75
70
71
79
68
68
71
99
84
70
74
74
96
99
72
78
70
73
89
85
87
66
66
73
73
70
70
92
85
70
68
92
71
81
76
70
71
70
79
76
75
71
79
95
74
81
77
75
73
84
74
80
63
68
68
76
87
98
66
76
83
72
94
65
70
76
99
70
71
