4.415549076317581978e-04
7.587071117753918514e-04
3.546221993619980140e-04
4.154218219883931695e-04
3.752530341075699383e-04
2.352536294493168256e-04
2.587534809822544801e-04
3.055188830450861204e-04
2.296676360113991677e-04
4.072273661503977848e-04
9.771598103202050467e-04
4.639282847724857106e-04
6.379198915340555942e-04
2.911646615749718947e-04
9.777121359343388107e-04
4.986512854383562399e-04
5.327053006638493571e-04
3.288694217535859110e-04
6.319085362528342742e-04
2.229707246779177865e-04
1.771734642902478285e-04
8.258245768687499933e-04
3.821061584581286752e-04
1.992377286021973504e-04
3.928667468544588814e-04
4.637339631587966693e-04
4.749198116368313904e-04
3.892401342386886398e-04
5.210665895782895518e-04
3.361934479989558966e-04
3.784416281571445495e-04
8.620034691405598082e-04
2.866464297406334794e-04
3.108158438759334175e-04
3.590737978583780077e-04
3.538420160925648261e-04
8.320846523075520196e-04
3.477108218086222280e-04
5.365443278168013919e-04
2.219821250181164274e-04
9.350450046431424411e-04
2.514769596901889059e-04
6.466299648315576576e-04
3.517978709820512861e-04
3.632415741838812551e-04
6.793714072935719273e-04
5.333356076411277513e-04
2.886080877028129876e-04
2.637364182154211534e-04
9.722804902819737194e-04
4.356747167236774132e-04
9.340827971404674912e-04
4.523080808678248133e-04
3.585165891586417075e-04
2.791186359388797555e-04
3.446318104947110328e-04
5.895850669552782364e-04
4.927682935369492867e-04
8.561938923073997287e-04
6.045312899725097111e-04
2.079021341447884197e-04
3.528995816465263502e-04
3.493673601182578636e-04
2.405382614049100809e-04
2.361201250324906908e-04
2.636527678157030152e-04
3.727394396210170768e-04
2.294571773134856940e-04
3.825351205882787653e-04
3.694308076972463439e-04
3.092576971648330897e-04
2.425999473647522109e-04
2.232979987085714768e-04
9.700259619683793133e-04
6.973798397037489494e-04
2.257286832735294624e-04
7.874751266909729708e-04
4.374381631050416885e-04
2.344525092498050967e-04
3.171721975523400516e-04
6.872625012406263778e-04
6.769650735408694331e-04
7.190133011499844073e-04
6.490079483426614004e-04
2.423820127798181900e-04
1.437330046176743537e-04
5.387978230655399159e-04
3.722692280718753466e-04
3.641501643142364131e-04
2.962415929710360274e-04
4.482783281942737119e-04
1.839391051073890893e-04
3.522157432851447112e-04
7.045065063802091743e-04
3.595520865723456083e-04
6.069987966070833352e-04
7.447936832006840646e-04
1.986696012562516600e-04
1.901219160224121296e-04
2.061038874185960879e-04
1.957744291704033301e-04
2.670305607822553995e-04
1.960743388014218880e-04
8.056894906963707470e-04
4.118078115296075481e-04
5.921466515658169172e-04
3.734821956120626396e-04
3.783195392352833863e-04
9.320200980678094993e-04
3.986194778555773865e-04
5.373156291347269686e-04
2.673763607741186377e-04
6.082438402745804495e-04
3.790591206186411100e-04
6.652784707907866135e-04
4.903245194013416963e-04
5.776593946692498704e-04
5.523235127864456473e-04
9.351765977428927457e-04
3.204110345131905291e-04
5.613134857685997403e-04
9.832665786679850584e-04
6.790964579942437851e-04
2.192600780003273186e-04
3.967205933529394102e-04
5.010015253499311427e-04
7.546766967675422322e-04
4.241025599812653368e-04
4.181270316941931853e-04
6.032670947756502144e-04
1.847041981227759422e-04
3.650498954886893799e-04
2.130817211057900451e-04
4.116242239098344413e-04
4.292863827490833728e-04
2.113481847972886740e-04
8.439666026279768474e-04
4.887168189361412729e-04
6.630147957072951570e-04
6.445746646338568198e-04
7.075307483311865653e-04
9.012487402763058597e-04
7.183315851373439642e-04
9.615109622764794750e-04
4.926064800813145794e-04
9.120306337629946469e-04
4.705970580483054277e-04
5.917589843711379416e-04
4.987767623579886234e-04
4.727819016171475042e-04
3.551592814775572649e-04
3.555785661631949424e-04
2.574234476344638978e-04
1.884212280106600801e-04
2.547071219759500238e-04
9.350396787488612915e-04
4.971280199059791016e-04
3.191230554028257060e-04
4.381448543957500164e-04
4.674588761757192401e-04
6.002488167059505386e-04
9.691412776425822884e-04
5.556993243874819299e-04
8.341539666401054376e-04
4.626308484642072116e-04
4.483189089594663557e-04
3.012227320219329485e-04
6.251354280668586227e-04
3.259138024442886916e-04
6.546835135037287756e-04
5.839335580575255591e-04
8.028856331085965081e-04
9.259420193901135576e-04
9.248718061901639587e-04
9.781740740570921133e-04
8.946701478408369823e-04
8.403508101435530619e-04
4.458621809435570071e-04
6.170546824507683326e-04
4.790968588861410637e-04
3.557942486737131205e-04
4.062430400788574758e-04
9.095553249103272009e-04
4.570370615477603593e-04
5.245583282011967441e-04
9.767497817679826611e-04
2.846319029001787015e-04
3.137719983482556430e-04
2.064019156311491798e-04
9.496312358570069279e-04
3.850910320026823541e-04
3.902140203987380929e-04
1.719709159989646352e-04
5.442596556297640831e-04
2.530055225034022470e-04
7.130336240653845081e-04
4.713742832646028447e-04
4.764038815816551420e-04
3.240851177411796513e-04
3.586408660352091715e-04
2.413627486790304033e-04
6.531229426777196423e-04
5.148059430256646252e-04
8.584765167815033848e-04
9.986831108136362545e-04
9.463713147610519627e-04
9.478159231917082650e-04
9.401963196425944247e-04
8.736524457952921097e-04
9.673203605337077349e-04
4.836150291647189903e-04
5.452240947364517254e-04
3.037834384567172918e-04
5.773014468481996175e-04
2.720738588174453909e-04
2.196639841948178073e-04
2.729132478741513879e-04
2.482254216275014969e-04
1.901062197169345325e-04
1.574170985436662562e-04
1.608934748317247809e-04
5.183933551262676076e-04
4.871822204256526234e-04
6.864727898991951349e-04
2.090248028017160919e-04
2.058362098672494866e-04
2.683947252466456490e-04
3.149977882421772790e-04
1.336675664440623024e-04
9.747902784139617083e-04
2.545117462385837470e-04
2.937725757984344099e-04
9.990479080993486249e-04
3.999066789582839121e-04
5.347787610683329973e-04
6.454315406556609958e-04
8.975265890999173379e-04
8.866836950796042061e-04
9.904279869002996506e-04
9.205235979433679105e-04
9.065831108261424021e-04
9.949803559313741275e-04
9.527866253219441361e-04
9.459255598667226650e-04
9.616244353480851714e-04
3.527938879980263565e-04
3.078205354688501316e-04
2.621176651399492741e-04
3.241998917231647681e-04
2.534969937000308704e-04
5.351052921226395753e-04
6.009164961635615754e-04
2.934960576924661169e-04
1.747098158016990865e-04
8.984934488138751618e-04
5.600402632939260883e-04
3.087736720308598137e-04
8.590609682038730099e-04
3.633624245514832651e-04
2.970297985265268892e-04
4.691792846794884397e-04
4.288745530141024886e-04
4.905722670177636857e-04
2.775218523103362145e-04
9.625375650040846054e-04
8.816655857748489922e-04
1.624655184542911357e-03
8.528732978182462787e-04
8.287135651604549125e-04
8.811606510047420571e-04
8.520669685607717980e-04
9.279082629731760790e-04
9.308640727232475598e-04
9.949647622402579827e-04
9.574957757141344672e-04
9.942809254521733919e-04
9.793799213249076985e-04
9.357192772817546356e-04
2.617311483696926899e-04
3.949839896485451973e-04
2.208397298064657122e-04
2.293468949331467499e-04
1.879573781274901378e-04
8.320309644240797553e-04
2.266634695424762924e-04
2.272629642662282734e-04
1.802112769819785854e-04
2.485831522512915726e-04
2.485688195469348827e-04
1.378217916286894607e-04
2.024462324118347922e-04
2.485744562703562366e-04
8.759881156448212636e-04
3.773269389406586072e-04
8.749106383425520050e-04
8.305329073506895199e-04
9.912532007937402412e-04
9.117956995471354631e-04
9.044051664667263069e-04
9.233214318646876251e-04
8.407365129146082694e-04
8.491551720219980837e-04
9.149046975807095805e-04
9.839061481702326972e-04
9.500058629707819335e-04
9.302407827402880969e-04
7.862950129550183576e-04
9.965660645498974901e-04
8.464265854888353147e-04
9.942773953864891823e-04
3.161352221335844703e-04
8.079764479133055843e-04
1.860633498377284312e-04
2.229024979203408918e-04
5.111646453352935993e-04
4.932236959054314696e-04
2.853714177434296673e-04
3.296945601467538012e-04
1.480717470492276533e-04
2.450243454029665813e-04
9.248961983268078058e-04
2.111575220509198658e-04
2.649418508590128951e-04
3.786882692843329679e-04
3.124464140674687584e-04
5.963109776337960355e-04
9.314968786444666193e-04
7.980964076816920993e-04
9.996931524522967294e-04
7.159408150330115461e-04
6.581841380867148317e-04
9.310639388198094224e-04
8.347414227066751735e-04
7.325596759486519005e-04
9.812855569406586653e-04
9.290121621977620592e-04
9.700606388625132581e-04
8.649998725251961673e-04
9.084965126174848749e-04
8.798139281784855825e-04
4.779962201989507165e-04
2.861201815431702045e-04
3.477598796579606244e-04
4.026597687664112968e-04
3.213328693478789688e-04
4.967240297412134353e-04
7.209389056097581516e-04
6.477473588033522134e-04
5.221608505880936946e-04
8.324904040889480328e-04
2.810574344380700751e-04
8.022717168764126328e-04
8.772761456444788664e-04
3.709224410631817292e-04
1.906780951108633104e-04
2.698963867310277820e-04
5.457968276983971023e-04
9.160188571201155483e-04
8.992519337283066960e-04
9.628496277062081887e-04
9.438594159005830875e-04
8.498733947842618264e-04
9.897130216335314756e-04
9.824992469289473007e-04
9.413819276451462770e-04
9.604362441614222590e-04
8.869266651460039341e-04
8.658013015097054677e-04
8.765190101339692674e-04
7.084840589796082000e-04
9.772995623955615940e-04
9.088183224458257214e-04
9.990522194521789245e-04
2.192709633401790370e-04
2.393889926783909772e-04
2.786386425462916705e-04
9.284212235997069129e-04
3.636928095331892763e-04
2.725787261875778356e-04
3.309097469181843110e-04
2.984396562590863056e-04
6.972824264970256536e-04
1.879967567672835571e-04
2.752290621996777986e-04
4.620327709162763696e-04
6.342292563561446883e-04
6.535366275597365160e-04
4.843695655663005084e-04
9.698078077104987926e-04
9.765583038043867958e-04
9.967423223773419494e-04
7.646489863462058167e-04
7.771108145726568495e-04
9.034198717806640744e-04
8.804781474883727199e-04
9.508619879451396528e-04
8.772680296056378779e-04
9.953739062279476357e-04
7.972827120025227643e-04
8.673428711990505136e-04
9.609111919752777453e-04
6.254549614267412849e-04
8.488826037355012843e-04
9.908230097191994545e-04
4.185488484742538873e-04
2.992155901753168479e-04
2.304372319489322862e-04
2.924587170337611397e-04
6.808612037594308219e-04
5.508640365962103047e-04
2.435034299758109810e-04
4.754636505578391237e-04
4.326065669786327561e-04
5.112278844853213045e-04
3.506417788686766457e-04
2.259656851684166412e-04
7.743768341744727834e-04
6.357152898266438257e-04
9.925977988741729874e-04
7.144653882579232729e-04
9.951452427704454706e-04
8.159368004734268709e-04
7.330013307967897518e-04
9.489257732639977405e-04
9.433121614236261721e-04
6.435087227161240264e-04
7.706337687094499955e-04
8.722508455927258098e-04
8.950230867360575715e-04
2.482884042616873010e-03
9.200087415129898361e-04
9.895765982713689013e-04
9.725683734805867786e-04
8.521525112329397800e-04
9.558654396168986267e-04
9.088872892202282117e-04
2.855295190821172113e-04
3.807599823122398419e-04
3.622851531289716931e-04
3.577472755944555161e-04
9.290393753716985614e-04
9.866762354239222432e-04
3.031920523063336148e-04
9.931574241759388855e-04
2.867491546703071492e-04
9.707728918374458615e-04
8.400055335237022192e-04
7.326259045571381634e-04
4.983355581331672113e-04
4.918967309521793396e-04
2.493750837861963277e-04
6.768524101249395741e-04
9.593994340683087430e-04
9.857280931655498790e-04
9.840117493848943298e-04
9.094817197052851299e-04
9.554159407084705791e-04
9.253305014486068458e-04
8.666403713768477957e-04
7.855377794061535468e-04
9.428138510840788911e-04
6.979535802882352868e-04
8.416494986673850320e-04
9.514408499367021932e-04
9.704959527423451249e-04
7.590322212582822914e-04
9.811951414306907537e-04
9.634408413502493218e-04
7.340514699275546562e-04
5.111873842691405656e-04
3.205654171474225933e-04
5.185955282714926895e-04
8.393674658324634663e-04
9.862228866102107361e-04
3.695538233017270358e-04
3.575537665372330309e-04
7.076288134597596979e-04
9.354349031349684651e-04
3.180989806947920329e-04
2.536297444023505321e-04
5.401577572426985441e-04
3.809970738847257010e-04
2.380343630795644927e-04
3.757308877331277941e-04
2.327865038047605140e-04
8.195713460121822891e-04
9.807904430023661746e-04
6.011268582956086348e-04
9.797559875827088760e-04
9.668425569577809853e-04
8.038235797925841197e-04
8.838009386832323955e-04
9.805041184635099327e-04
9.305464912778838027e-04
7.838671456866785903e-04
6.710824322766484329e-04
8.900334697425904551e-04
9.175610676408485489e-04
9.728257937062778637e-04
5.806726498231995492e-04
4.140145710185283434e-04
4.028260466244493188e-04
3.272684835763373101e-04
4.824059816262993294e-04
3.763238085450204551e-04
8.579628285551033073e-04
8.443762960943512752e-04
4.948711073939904281e-04
2.860894757371612585e-04
4.375678688924855564e-04
4.447461947661990322e-04
4.883687063748087809e-04
4.714852522393897516e-04
9.604273593341039472e-04
4.965751365549886387e-04
3.858877138981364752e-04
5.650349626472594977e-04
9.637307738312728134e-04
8.742685841440778205e-04
8.685320403231111541e-04
9.121272813039649208e-04
9.650038333590682527e-04
8.865094196902623125e-04
9.699213290185193515e-04
8.105208941483477147e-04
9.885401313315389515e-04
8.117592712785226539e-04
9.950222627114202467e-04
9.227178698953952818e-04
8.679889397176232535e-04
9.634806878739965441e-04
9.003310990791657531e-04
2.631541023967454151e-04
4.997888888284007791e-04
7.914845533026904079e-04
8.607144826466850418e-04
6.224804936992844873e-04
4.844189204944449045e-04
3.749053233049748357e-04
7.508393553149472766e-04
9.569829279530983612e-04
7.986612075324694970e-04
2.755674110329620063e-04
3.198219383493405843e-04
4.838581956980725352e-04
4.928731125678487146e-04
5.307041798616740635e-04
5.865641269416910220e-04
6.890220194472052029e-04
9.715469396329723395e-04
7.452873204383259065e-04
9.888758319462898072e-04
5.992737812449133727e-04
9.834254523725105557e-04
8.910422853630750595e-04
9.900153947125511777e-04
9.930643493539781375e-04
9.813918547191269326e-04
9.748573452232900394e-04
9.644425345058937893e-04
9.792647643238616695e-04
8.638859002562115919e-04
9.985527314825271006e-04
9.997905266412310255e-04
9.651349041412959906e-04
8.805110804765980959e-04
9.862080117521987432e-04
7.134320555274298314e-04
3.751646022867038965e-04
8.999816165902174703e-04
8.542145268793932544e-04
9.071671665251690442e-04
9.463123187927191537e-04
4.457312864072360270e-04
4.588494773276607930e-04
3.528129444596572739e-04
1.157833019885368131e-03
8.590339699033888721e-04
9.016421922574124892e-04
2.772369448713618567e-04
9.496598106102371872e-04
8.637416457770719092e-04
9.058571486485478275e-04
9.814594098667139832e-04
8.869806476040631438e-04
8.959889629185369131e-04
9.713732848303235912e-04
8.131779868196797878e-04
8.307142219302621200e-04
7.528528267315426348e-04
9.851258000593832165e-04
9.838321841607600149e-04
8.349164603245196048e-04
8.743459490245797383e-04
9.996313414400992414e-04
8.664282607064865971e-04
9.858229786449124177e-04
8.938502421265148712e-04
6.846555300225043439e-04
9.946449912282551153e-04
9.690063170778584478e-04
7.454995004260167590e-04
6.752218551162592064e-04
6.354118343943060410e-04
7.507372937712863958e-04
9.267689256945432774e-04
5.819152127741755720e-04
3.861464508200240786e-04
8.532974284348737726e-04
9.908330918011465371e-04
9.664576067558439121e-04
9.976498559559621171e-04
9.637730302953784189e-04
9.128872672309329417e-04
9.776062741784219412e-04
9.364212769485957821e-04
7.947918354701544175e-04
9.223053912317258352e-04
9.289755061068216691e-04
9.084290513373671772e-04
9.877213096617376564e-04
7.457964856799614850e-04
7.781676139503312939e-04
8.511989142085951698e-04
7.363496697412319492e-04
9.182012996262756133e-04
7.547790386034369803e-04
8.783984777097630925e-04
9.039750667750867663e-04
9.716146145372084320e-04
9.744287096524750780e-04
5.980795674914718418e-04
9.646569526152726226e-04
9.083055936808248632e-04
9.614856034863006329e-04
8.563768731979504167e-04
9.636083062614098083e-04
9.131056535598425228e-04
9.956616810437024512e-04
8.900977256811604121e-04
9.655377241026830148e-04
7.961750827752966941e-04
7.335806572912328960e-04
9.470842137281332285e-04
9.845573944365915153e-04
7.405589972168113988e-04
9.438250639272061093e-04
5.566345289621521530e-04
9.375230477236540239e-04
9.815208427005339686e-04
5.720437420384527627e-04
4.215571849943700045e-04
8.840141588550842755e-04
7.616972039310443421e-04
9.639142963721036850e-04
9.725410673112611093e-04
7.894811441550020348e-04
9.349112334219311649e-04
8.934928831815236450e-04
8.194582741206657417e-04
9.885976721479838858e-04
1.034029204162623117e-03
9.955923794132681692e-04
8.867843878772596611e-04
9.361687791327177877e-04
9.822040935472120537e-04
9.646307708971457728e-04
9.450102783516989291e-04
8.218091750419320718e-04
9.285791576315594043e-04
9.873523181611609800e-04
8.859846782220959227e-04
9.679717726116532361e-04
9.644003834654579776e-04
9.304153446885177203e-04
9.468857652936701896e-04
8.789434327310940986e-04
8.847764716402028995e-04
7.111643405929291006e-04
9.931052873278778392e-04
9.083929272459823068e-04
9.974869604069125373e-04
9.232729558407148929e-04
4.215571849943700045e-04
8.574337320387259709e-04
9.618927699824864064e-04
9.532319523065657663e-04
9.860749708036076200e-04
9.500538170806871463e-04
9.898420301183152858e-04
6.728523766857952282e-04
9.736001627277390824e-04
9.200628644067121442e-04
9.091032926694664340e-04
8.321897142501422096e-04
9.843318113487153909e-04
9.787347155038039759e-04
9.485259900333664618e-04
9.239762913714200110e-04
9.903861689641857424e-04
8.255008430719801282e-04
8.813482215773715822e-04
9.176847503997720423e-04
9.423033475860487229e-04
9.274164834912612676e-04
8.149891253823593473e-04
9.342703204932023553e-04
9.789379503676309824e-04
9.787982029122455074e-04
8.275321943094215982e-04
9.756565408687301044e-04
6.954389926511206355e-04
7.654696321853782237e-04
9.137000042704901404e-04
4.215571849943700045e-04
9.877623688256953471e-04
9.958568054760918997e-04
8.837452706941251179e-04
9.812785897239661992e-04
9.118304575249647215e-04
7.921312397518587289e-04
8.618985569918136136e-04
9.333891889379275497e-04
9.252154691805625220e-04
9.396636908485245243e-04
9.391361165218548024e-04
8.723100903182956500e-04
9.754664387457978592e-04
9.403838292688648792e-04
9.861709065047685741e-04
9.267719479557623430e-04
9.046042367879536528e-04
7.048073378749242224e-04
9.812145818836048861e-04
8.864373719554841102e-04
8.171843741556772400e-04
7.204740138616605449e-04
8.480288853911499558e-04
6.592263495353023472e-04
6.361084021212493056e-04
8.601663032877793214e-04
7.213375422505663437e-04
9.465301764253197803e-04
5.519878624291596481e-04
5.715932597326611742e-04
7.272241463707196374e-04
4.575410554010783670e-04
9.534107376362177533e-04
8.953108387524943979e-04
8.125989573604108784e-04
9.758034235068935303e-04
9.977172868722572474e-04
9.531660782405859678e-04
9.722419684693450748e-04
8.516163941998389220e-04
9.418155427560748194e-04
9.959738905527260044e-04
8.452540702781341508e-04
7.721991179439058328e-04
9.105073057710244555e-04
9.343643116435096374e-04
9.259424063959853513e-04
9.632551866689542663e-04
9.229134791199911092e-04
8.050531354925061223e-04
9.661734831816204405e-04
8.766181158813557417e-04
9.355497961475167656e-04
7.213111142724271119e-04
8.148763099907752050e-04
9.761512887773715619e-04
9.873806554500097477e-04
8.761985773680924794e-04
8.170377680964957534e-04
7.213375422505663437e-04
9.638819919959296101e-04
9.835474316342018852e-04
9.104315321808442718e-04
9.371832646527522570e-04
9.739251566086570833e-04
9.331246601099740801e-04
9.609359347193535683e-04
9.593036636640350778e-04
6.924855297938403709e-04
6.953643508155193942e-04
8.867041613404014200e-04
7.432056900208428019e-04
9.092827645402756787e-04
9.215868774969937505e-04
8.652937830835316646e-04
9.809988197455599135e-04
9.090953271829738114e-04
9.147791301682417497e-04
6.163686521499789350e-04
9.766617242861208581e-04
9.164737258257060759e-04
7.473020002419783481e-04
8.923043109317907451e-04
1.254435798061059870e-03
8.472381398543227249e-04
6.271947198673855084e-04
8.075334175376980284e-04
9.439158769098954238e-04
8.961624343652996316e-04
8.896368169422075312e-04
5.836834085023445695e-04
6.816100919427858784e-04
9.987705474445718323e-04
9.572340353676267455e-04
7.851620842296291869e-04
8.316159477139706269e-04
7.640795855342608078e-04
1.969728695093819759e-03
9.169255038095069921e-04
9.204438359342592690e-04
9.437389470371426725e-04
9.760004518902798409e-04
9.326427138958148788e-04
8.018521625324792623e-04
9.357649705025172793e-04
8.486068554435233224e-04
9.993663678387054716e-04
9.392588920535960284e-04
9.407037448263544377e-04
8.309808514512795341e-04
8.830428034459769648e-04
9.739959060082181708e-04
6.191684034393407643e-04
9.800558451672491955e-04
7.364893341341716138e-04
8.393894420070102669e-04
7.849119149679895102e-04
8.431209247484749980e-04
8.441000980659030262e-04
9.252096207690296836e-04
6.568762165919395102e-04
8.999655885616464346e-04
7.363916883307286554e-04
7.255791761939800466e-04
8.552486933629532828e-04
9.839638431458075374e-04
9.372245637421228182e-04
8.817352768242248118e-04
9.698931696798807067e-04
9.857979295129215558e-04
8.382504649371291805e-04
7.878411118363848331e-04
9.779377443517311974e-04
7.708449904002545594e-04
9.416600956994036764e-04
9.487526029398063443e-04
9.728863751281568995e-04
9.249242959008530107e-04
6.200295377846165579e-04
9.536575212544251556e-04
9.599084626473741721e-04
9.687402773989051141e-04
8.924718457513636238e-04
7.520017779377718981e-04
9.902771504999297036e-04
9.253839981340217236e-04
9.885289713164047143e-04
9.130184764590820734e-04
8.250334603635556263e-04
9.453246375936696921e-04
9.075626376433554299e-04
9.273496346772214238e-04
8.267456886564827911e-04
9.997951916361769165e-04
8.787924907518451789e-04
9.082367678491243268e-04
9.638157970133232055e-04
9.191925030005432262e-04
9.917291569492281411e-04
9.803095743267098428e-04
8.361400739479440958e-04
9.640459195875417109e-04
9.795251751082423297e-04
8.604465405791517085e-04
9.554195850841606941e-04
7.692157131230503708e-04
9.222987634946999691e-04
8.441505761508372174e-04
8.341856361192556690e-04
9.907072412823625385e-04
9.760326481418335476e-04
6.022501899963783600e-04
9.161983043680654859e-04
7.893143614700059985e-04
9.367080459847798579e-04
8.032140179200508712e-04
9.982832708068656302e-04
1.106364832086148553e-03
9.966222582620254400e-04
8.720122817418296535e-04
9.795287479014147536e-04
9.714099099235040669e-04
9.273478242615151856e-04
9.970817352702443515e-04
9.960657930986327457e-04
8.951090067380595983e-04
9.965539700764747266e-04
8.978888725375000490e-04
9.708334264706408590e-04
6.882037090735204643e-04
6.595070158894600354e-04
9.461651381800217919e-04
9.735377985885529384e-04
9.900578358518208333e-04
9.839140468819174146e-04
8.069702131565659187e-04
9.735416702764121410e-04
9.655728021398246597e-04
9.286451392526151594e-04
9.594605287299717844e-04
9.984419060908855670e-04
9.844479527146843267e-04
9.958477036710045027e-04
8.448343824403181657e-04
9.822939425314647366e-04
8.734659735333272224e-04
9.863763374846623577e-04
9.716455811795698949e-04
9.988272078594873093e-04
9.354738164505382869e-04
8.870984996887099072e-04
9.922733201028766103e-04
9.853171170228769427e-04
9.371646237388286949e-04
9.860847672380490536e-04
8.726951870717813975e-04
9.455386036903989933e-04
9.448523472573855386e-04
9.025320436640837940e-04
8.871350731590732508e-04
1.751062304202188891e-03
7.802341784748367814e-04
8.807788767227764382e-04
9.306087388822881223e-04
9.970391701414893504e-04
8.251433192646429049e-04
8.769889038382494562e-04
9.976728231764209198e-04
8.029435464106393638e-04
8.878107672026791519e-04
9.157993675823483670e-04
9.995589602699306297e-04
9.266708789935629298e-04
9.483416902001939874e-04
8.875795798114483048e-04
9.711624880163194362e-04
9.038589064336299828e-04
8.152503987182146972e-04
9.838456966040354246e-04
9.399950856077143868e-04
8.736022352738848085e-04
8.662356689720374092e-04
9.743675124160855461e-04
8.099206381110279906e-04
9.989444103840616762e-04
9.704264401920736915e-04
9.624222386744873958e-04
9.169765150212061400e-04
9.894945026461821058e-04
9.437271241453659698e-04
9.140132061546957232e-04
8.458900968929539133e-04
9.917242917447666173e-04
9.344143894139955719e-04
9.989372717258415690e-04
9.607220076565115008e-04
9.539932265909545350e-04
8.765862673624225110e-04
8.946468978804356098e-04
9.296981191471154204e-04
9.604571623503810329e-04
9.598711529117398555e-04
9.584672963071083629e-04
9.510638942544780150e-04
9.002427626939590866e-04
9.182013972102165411e-04
8.213922741906465319e-04
9.391597976705634565e-04
9.312800193854720021e-04
9.045964447720322710e-04
9.805228611196037392e-04
9.988705061334535174e-04
8.544782709501985707e-04
9.588993729322536907e-04
8.388175084009796834e-04
8.835749750057964036e-04
9.751586320128069474e-04
1.114789803801419232e-03
9.632209542581593453e-04
9.765973182891407589e-04
9.366880679854139302e-04
8.574027435011011278e-04
9.996832410885669873e-04
9.223712545942674979e-04
9.870868739351168486e-04
9.511647526786459750e-04
9.323333025383906403e-04
9.242847844480595043e-04
8.396503573524505271e-04
9.318146734432763978e-04
9.272732966111307817e-04
9.969958338155171518e-04
9.857196370942622465e-04
9.495812140531967316e-04
7.152424429665016348e-04
9.979769898870172185e-04
9.701391509401302571e-04
9.994050135688770098e-04
9.651895819029476797e-04
9.310154551545046786e-04
9.616284801141627980e-04
9.776199421015485669e-04
9.337688483742612178e-04
7.431939344864080255e-04
8.616102543483883380e-04
9.366441028088035026e-04
8.025985041433258971e-04
9.727098696008518175e-04
9.875325459681727480e-04
