8.173520342539264405e-04
9.614307566073732048e-04
8.891765027836395774e-04
8.972023930823302962e-04
9.912416000010804140e-04
8.085624594177387436e-04
9.949361857101157725e-04
9.685811145396794331e-04
7.832071493054648670e-04
7.509553889952780281e-04
9.523680911145415706e-04
8.649252939254559180e-04
9.982979226508259529e-04
8.834916282129956500e-04
9.315403989540449459e-04
7.708362483824782174e-04
7.656716646031735962e-04
8.857741947428943163e-04
8.589387074378063147e-04
6.049834820458510620e-04
9.878128655254059254e-04
9.399704677059972369e-04
8.973263998517388984e-04
9.153344613187508472e-04
9.978227573358422475e-04
9.527103217975563254e-04
9.801271775895514793e-04
9.505751441837295701e-04
7.203469761047909259e-04
9.956244575587414047e-04
8.790998373482405981e-04
9.433056133151263012e-04
8.341327094896211491e-04
8.868571700565430760e-04
9.071876111057530778e-04
9.056584689379754138e-04
7.493812013092959745e-04
8.982890996945824824e-04
1.731914460305628012e-03
1.471490315410162175e-03
9.880351563359424105e-04
9.718271892964480685e-04
9.841540409250004728e-04
8.707717193574548986e-04
9.443653329800349994e-04
9.523186656283932905e-04
8.957337367405671102e-04
8.903502709519672820e-04
9.975812983336052042e-04
9.943788692907684634e-04
8.595942342108919831e-04
9.861947405050974780e-04
8.305422711402110636e-04
7.277166736803231117e-04
9.161917867787083836e-04
9.179062858624131849e-04
8.763496808881221511e-04
9.035821372491703585e-04
6.973527378075772276e-04
7.862883265921105647e-04
8.208281982789999986e-04
9.860979913508538530e-04
9.477405853869358410e-04
9.383935058596692969e-04
8.193771545083050611e-04
9.655238048498215875e-04
7.186306231732331185e-04
9.518316872596521705e-04
9.937236284580652779e-04
9.976281255990038233e-04
8.974437005503377307e-04
9.683799859083741524e-04
2.841105759457840385e-03
8.820482363764980960e-04
9.993869903871521743e-04
9.499112930736464122e-04
9.692053136243217182e-04
9.623113903775015743e-04
9.692753590235803074e-04
9.033508517795052484e-04
8.040973632896797341e-04
7.450084449495131267e-04
9.711359646100703458e-04
9.610118184317784085e-04
1.546485051228452257e-03
8.925954758599585759e-04
9.763237052639039959e-04
8.606669365327501708e-04
8.824142390341238595e-04
9.290382256650353554e-04
6.360238171307930344e-04
9.128802437978755790e-04
9.708802898319435215e-04
9.810270063350667868e-04
7.485424914609462022e-04
9.567385495028446485e-04
8.972421928873375307e-04
8.184252800483848844e-04
2.043454127929389408e-03
9.107043374504408817e-04
9.353605408045639891e-04
9.843843992940470855e-04
9.893893300769729393e-04
9.289421894896898735e-04
1.084409188440993432e-03
9.919728513686498772e-04
9.883489063432504551e-04
8.048482516763710848e-04
7.538960485390377997e-04
7.979549026915222498e-04
8.410336400100915100e-04
9.732232893115977390e-04
9.398835833944740870e-04
9.988514666162684463e-04
9.306151305507048832e-04
9.950789430192008567e-04
9.735798388519345536e-04
9.540291146589163773e-04
8.552542146228470088e-04
8.605694490535498176e-04
9.686271949368441270e-04
8.691843619433869961e-04
8.017126833537169261e-04
8.797486122036346501e-04
8.759449010987685469e-04
9.756744472549927494e-04
8.781121857549534226e-04
9.802799414061480476e-04
9.934594379352734705e-04
9.075551700487016760e-04
9.829891721441219588e-04
9.928065237794214681e-04
9.325061418197222451e-04
7.726032896314682930e-04
8.325937523226967230e-04
9.702132653776063265e-04
9.825278674225890185e-04
9.302315950929784805e-04
7.282929308264352031e-04
9.149398343772929820e-04
9.013498534995445510e-04
8.922452543334014052e-04
9.377944390844827893e-04
9.253838397877967026e-04
9.213461650012799709e-04
8.973317821586723753e-04
9.740977066537981344e-04
8.274688192900780948e-04
9.355036906423253029e-04
9.406940959910681244e-04
8.287229905488135984e-04
1.141363290121044649e-03
9.504809416284176748e-04
9.992542426087158702e-04
9.265452209032964959e-04
8.797478013854442835e-04
2.439563781337028558e-03
1.199542512200890698e-03
9.532650545236442952e-04
9.642736799350126731e-04
9.508431099004566178e-04
9.094424986773042008e-04
9.964915442403077250e-04
7.802218717912756674e-04
8.929982323786500586e-04
8.263373989160216482e-04
9.418064600783537799e-04
8.922712986776382138e-04
9.967156609932414923e-04
8.814879686998011721e-04
7.936847029658133934e-04
9.223021435179612482e-04
9.481327716108767234e-04
9.865402949732482440e-04
9.671909197784822609e-04
1.265231907374597675e-03
8.628101316205949445e-04
9.965180671013262881e-04
8.597823067618692860e-04
9.700169728902308108e-04
8.649786511357726582e-04
9.213189423024070734e-04
9.791653191378868470e-04
8.787994051693281961e-04
9.802038465785978261e-04
9.578707385784479555e-04
9.994804679303026518e-04
9.485278001074570753e-04
8.821785616880406522e-04
9.629202313458096185e-04
9.197095508580721557e-04
9.707961383575991476e-04
8.588982610867601508e-04
9.912038636524789226e-04
3.099089037786773027e-03
9.394861897227269054e-04
8.391539862222519019e-04
9.110595128368759177e-04
7.558331027517350975e-04
9.559984129391407848e-04
7.830649397608802076e-04
8.368743001397893622e-04
8.177614815918499147e-04
9.462367891026612909e-04
7.240533355484801703e-04
8.729267607759938485e-04
9.914896273263140714e-04
8.729935152871348691e-04
9.806183043635785523e-04
9.765237720293917789e-04
1.310214958920807859e-03
9.528729500362098648e-04
8.545944940733241069e-04
9.091724628376152140e-04
9.765245220154650241e-04
8.610563436548535066e-04
9.581391214643630860e-04
6.696690533305460491e-04
8.228000650456479548e-04
9.750716332707076717e-04
1.270790772567753635e-03
9.765100045682206797e-04
9.365160844528874762e-04
8.977982717710553118e-04
8.016925538807395668e-04
6.739109366948881075e-04
9.725471440060751149e-04
8.050009981206418530e-04
9.012695544686755156e-04
9.764847179820623779e-04
8.806379248456064346e-04
9.601122190037170157e-04
9.492202215740652704e-04
9.842420380375971334e-04
9.803697662865706874e-04
5.164313498745798370e-03
9.138537620388964555e-04
8.617135182019675099e-04
9.872587454672343554e-04
8.510607768797973094e-04
9.581437517774960000e-04
7.623461073549275824e-04
9.782112038279056065e-04
9.854043161462433531e-04
8.248724705388621459e-04
9.166467334051908722e-04
2.304033813082417836e-03
9.486651930400435973e-04
9.521948896111798177e-04
7.334158935087264908e-04
8.824643056907222061e-04
9.515136071815977203e-04
8.964006944641722541e-04
8.902170642857143434e-04
8.450789769728350720e-04
9.000337271886094115e-04
