0
67
0
0
0
0
0
0
0
0
73
0
70
0
64
0
0
0
0
0
0
63
0
0
0
0
0
0
0
0
0
70
0
0
0
0
71
0
0
0
0
0
0
0
0
0
0
0
0
70
0
74
0
0
0
0
71
0
71
0
0
0
0
0
0
0
0
0
0
0
0
0
0
69
0
0
0
0
0
0
0
0
0
0
0
0
0
0
0
0
0
0
0
0
0
0
0
0
0
0
0
0
0
0
0
0
0
0
70
0
0
0
0
0
0
0
0
0
68
0
0
70
0
0
0
0
70
0
0
0
0
0
0
0
0
0
70
0
0
0
0
38
37
32
0
70
0
0
0
0
0
0
0
0
0
0
0
0
0
0
0
70
0
71
0
0
0
0
0
0
0
1
38
60
2
52
31
0
0
0
0
0
71
0
0
68
0
0
0
71
0
0
0
0
0
0
0
0
0
0
0
0
0
76
47
14
21
49
45
27
0
0
0
0
0
0
0
0
0
0
0
0
0
0
0
0
0
0
0
68
0
0
71
0
0
27
15
43
65
43
38
31
74
39
6
0
0
0
0
0
0
0
0
0
71
0
0
62
0
0
0
0
0
0
42
38
99
56
42
69
42
71
50
39
38
31
35
11
0
0
0
0
0
70
0
0
0
0
0
0
0
0
68
0
69
26
92
5
4
46
51
44
48
44
35
38
37
37
31
68
0
62
0
0
0
0
0
0
0
0
67
0
0
0
0
0
50
39
15
18
7
51
45
39
38
44
33
36
47
42
0
0
0
0
0
0
69
0
0
70
0
73
2
0
0
0
0
30
70
41
20
71
1
32
36
21
31
77
45
42
57
33
69
0
0
0
72
0
0
0
0
0
0
0
0
0
0
0
50
33
53
21
8
4
6
70
17
72
40
46
42
28
65
36
0
0
0
0
0
0
0
0
0
0
0
0
0
0
71
0
50
31
21
24
85
2
13
25
58
99
22
38
51
54
69
10
0
0
0
0
14
7
0
64
0
72
1
0
0
0
0
0
33
46
11
12
27
13
36
43
43
18
23
41
43
55
88
16
73
0
0
0
72
10
0
0
0
1
0
0
0
0
0
0
0
38
22
16
20
22
33
77
36
91
15
41
38
40
50
0
0
0
0
0
0
2
69
0
0
0
0
0
0
68
0
0
0
32
0
18
74
28
28
67
35
8
40
33
64
23
81
36
0
0
71
0
0
0
0
7
15
70
0
0
0
0
0
69
0
49
16
22
16
32
20
87
47
40
37
36
18
1
33
43
74
9
29
8
0
73
0
64
3
0
0
0
99
11
5
0
32
38
20
24
11
13
20
17
16
36
29
59
32
10
64
49
65
6
6
69
6
0
0
0
0
70
0
0
19
44
33
53
65
2
68
14
32
21
20
69
19
38
42
36
21
31
27
35
36
24
14
11
21
13
19
10
3
27
18
15
7
40
5
59
35
3
10
0
70
17
0
0
56
39
50
68
30
24
76
31
51
99
25
36
43
41
70
19
36
30
45
73
23
21
19
38
72
9
9
10
2
13
72
0
63
35
48
36
44
34
26
28
36
38
24
33
79
36
68
29
19
33
16
37
17
2
75
83
10
0
11
4
70
17
0
0
28
10
64
34
10
17
13
33
42
66
0
23
9
12
12
12
0
6
1
10
0
12
0
44
42
0
75
0
0
2
0
72
5
35
66
37
27
73
9
79
11
56
28
70
5
6
76
0
4
6
5
4
4
0
12
94
53
4
0
23
7
63
0
39
4
56
50
17
9
5
2
11
15
41
41
10
4
3
5
2
68
14
99
4
66
2
4
13
38
36
70
6
27
15
20
32
99
46
35
26
12
19
21
4
6
46
44
30
6
6
6
2
3
3
7
2
2
13
14
2
23
40
36
30
93
24
34
39
35
41
31
34
9
75
10
68
8
8
38
62
30
8
7
28
21
92
68
18
5
13
13
8
41
66
39
36
26
46
46
68
25
41
29
75
19
14
11
4
37
27
2
50
13
7
69
57
99
11
19
88
78
15
18
20
19
49
29
69
35
24
41
30
18
33
14
18
17
3
7
12
16
78
16
85
26
15
19
19
22
7
12
18
15
20
9
14
64
37
38
99
29
39
29
15
73
28
74
8
15
11
3
22
15
7
23
14
37
80
12
74
13
18
18
97
20
18
74
25
31
29
35
86
80
49
30
16
30
23
25
15
10
7
8
65
16
14
11
2
28
23
26
16
13
10
18
15
99
21
39
23
75
66
77
50
45
32
29
73
35
67
24
9
7
14
27
33
66
28
13
38
94
30
18
73
12
20
29
80
