0
0
0
0
0
0
0
54
0
0
61
0
0
0
56
0
0
0
0
0
61
0
0
0
58
0
0
0
0
0
0
0
0
0
0
58
0
0
0
0
0
0
0
0
56
0
0
0
0
0
0
60
0
0
0
0
0
0
0
0
0
0
0
0
0
61
0
0
0
0
0
0
0
0
0
0
0
0
0
0
0
0
0
0
0
0
0
0
0
0
0
0
0
57
0
0
0
0
0
0
0
0
0
58
0
60
0
0
0
0
0
0
0
0
0
0
0
61
0
0
0
0
0
0
0
0
59
0
0
0
0
0
0
0
0
0
0
59
0
61
0
0
0
60
0
63
0
0
61
0
0
0
59
0
0
0
0
0
0
0
60
0
0
0
61
0
0
0
0
0
0
0
0
0
0
0
0
58
0
0
0
0
0
0
0
54
0
0
0
0
0
0
0
0
0
63
0
0
0
0
0
0
0
0
0
0
0
0
0
0
0
0
0
0
50
0
0
0
0
62
0
52
0
0
0
0
61
0
0
0
0
51
0
0
60
0
0
0
0
48
0
0
0
58
0
0
0
0
0
0
0
0
0
0
0
0
0
61
0
0
0
0
0
61
0
0
0
0
61
0
62
0
0
0
61
0
0
0
0
0
0
49
0
0
0
0
0
0
0
0
0
0
0
0
0
0
0
0
0
0
61
0
0
0
0
0
0
0
0
0
51
0
0
0
0
0
62
0
0
47
0
0
0
0
0
0
0
0
0
0
0
0
0
0
0
0
0
0
0
0
0
0
53
0
0
0
0
0
0
0
0
0
0
0
0
0
0
0
0
0
0
0
0
0
0
0
60
0
0
0
61
0
0
0
0
0
0
0
0
0
0
0
0
0
0
0
0
0
0
0
0
61
0
56
0
0
61
0
0
0
0
0
0
0
58
0
0
0
0
0
0
0
0
0
0
0
0
0
0
59
0
57
0
0
0
0
0
0
0
0
0
0
0
0
0
0
0
0
0
0
0
0
57
0
0
0
61
0
0
0
61
0
0
0
0
0
0
0
0
0
0
0
52
0
0
62
0
0
0
0
45
0
0
45
0
0
58
0
0
0
0
0
0
0
0
0
0
0
0
0
0
51
0
0
0
61
0
0
0
0
0
0
0
62
0
0
0
0
0
0
0
0
0
0
0
0
0
0
0
0
0
0
0
0
0
0
0
0
0
0
0
0
58
0
0
0
0
0
0
0
0
0
0
0
0
0
57
0
0
0
0
59
0
0
0
0
0
0
0
0
0
0
0
0
63
0
0
0
0
0
0
0
0
0
60
0
0
0
0
0
0
57
0
0
0
50
0
0
0
57
0
0
0
0
0
0
0
0
0
0
0
6
37
8
1
30
53
0
0
0
0
0
60
0
0
0
0
0
0
0
0
0
0
0
0
0
0
0
0
0
0
0
0
49
0
0
60
0
0
0
0
0
51
0
0
0
0
0
0
0
0
0
0
0
0
0
0
58
0
0
0
0
0
60
0
12
0
0
13
0
7
4
8
0
0
0
0
0
0
0
0
0
0
0
0
0
60
0
0
0
0
0
0
58
0
0
0
0
0
0
0
0
0
44
57
0
0
0
0
0
0
0
0
0
0
0
0
0
0
0
0
0
0
0
61
0
0
0
13
24
61
2
0
0
7
7
58
28
0
0
0
62
0
0
0
0
50
0
62
0
0
0
0
0
61
0
0
0
0
0
0
0
0
0
60
0
0
0
0
0
0
0
0
62
0
0
61
0
0
61
0
0
0
0
0
0
54
0
0
0
0
0
42
13
1
6
0
0
24
35
27
23
60
0
0
0
0
0
0
0
0
0
0
0
0
0
0
0
0
0
0
0
0
0
0
0
0
0
0
0
0
0
0
0
60
0
0
0
0
0
0
0
0
0
0
0
0
0
0
0
0
0
0
0
0
4
58
31
1
61
9
0
26
21
22
31
7
0
0
62
0
60
0
0
0
0
0
0
0
0
0
0
0
0
0
0
0
0
0
0
0
56
0
0
0
0
0
0
0
0
0
0
0
62
0
0
0
0
0
0
60
0
0
0
0
0
0
0
0
35
4
0
38
10
13
43
57
21
2
7
60
15
6
0
0
0
0
0
61
0
60
0
0
61
0
0
0
63
0
0
0
0
0
0
0
0
0
0
56
0
62
0
0
0
0
0
0
0
0
0
0
0
56
0
0
0
0
0
14
0
0
0
0
17
9
3
22
3
67
18
23
32
13
16
8
5
17
16
20
0
52
0
0
0
0
0
0
0
0
0
0
0
0
0
0
0
58
0
0
0
0
0
0
0
0
0
0
0
0
62
0
0
0
0
59
0
0
0
0
0
13
29
2
61
0
1
65
7
31
34
60
30
16
3
2
60
2
58
17
4
59
15
20
7
12
0
0
0
0
0
0
0
0
0
0
0
0
0
0
0
0
0
0
0
61
0
48
0
0
0
0
0
0
0
0
57
0
0
0
0
0
0
0
0
65
3
13
32
9
34
9
10
36
11
14
29
0
4
6
10
25
12
8
23
8
14
3
52
4
61
0
0
62
0
0
60
0
0
0
0
0
0
0
0
0
60
0
0
0
0
0
0
0
61
0
0
0
0
0
0
0
0
0
0
0
0
58
3
23
3
0
0
0
0
0
17
92
8
0
17
13
0
1
23
0
30
60
19
16
67
14
28
11
7
12
0
0
0
0
0
0
0
0
0
0
61
0
59
0
0
0
0
56
0
61
0
0
0
0
46
0
60
0
0
0
48
0
0
0
0
13
5
60
0
1
0
57
0
17
47
15
15
29
28
57
25
24
2
28
0
9
22
13
0
13
5
0
16
10
0
0
0
0
0
0
0
0
0
0
0
0
0
0
60
0
0
0
0
0
0
0
0
0
0
0
0
0
57
0
0
0
0
34
66
31
6
12
0
59
0
0
0
2
9
11
55
10
21
13
4
29
20
14
64
20
10
21
26
24
0
0
0
0
0
0
61
0
0
0
0
0
55
0
0
0
0
0
0
0
0
58
0
59
0
0
0
0
0
0
0
0
0
0
0
0
4
17
0
15
13
4
0
20
0
0
0
53
19
19
11
8
8
19
0
13
4
0
4
27
11
19
62
20
5
60
0
0
57
0
0
0
0
0
0
0
0
0
0
0
61
0
0
0
0
0
0
0
0
0
47
0
0
0
0
0
0
0
49
0
66
3
1
11
5
7
0
0
0
58
0
34
27
3
99
39
14
27
33
55
21
37
25
9
7
7
3
17
0
0
0
0
0
0
0
0
0
63
0
0
58
0
61
0
0
0
0
61
0
0
0
0
0
0
0
0
59
0
0
0
0
0
4
0
2
0
7
61
8
14
5
60
0
0
0
2
11
2
20
8
10
14
14
9
25
46
8
12
61
6
36
11
26
0
61
0
0
0
0
0
0
0
0
0
0
0
0
0
0
0
0
0
0
0
61
0
0
0
0
0
0
0
0
55
0
58
18
0
4
13
6
10
5
0
0
0
0
0
0
8
11
0
2
3
57
7
58
18
54
4
3
10
19
22
23
54
0
0
0
0
0
0
0
0
59
0
62
0
0
0
48
0
0
0
0
0
0
0
0
0
0
0
0
0
0
61
0
0
0
30
6
2
51
1
4
3
0
0
0
0
61
0
0
0
7
0
0
4
61
3
9
14
34
31
19
18
23
21
22
29
0
0
0
0
0
0
47
0
0
0
0
0
59
0
0
0
0
60
0
0
0
62
0
0
0
0
0
51
0
0
0
0
0
15
16
0
0
5
6
6
6
0
5
0
0
6
27
61
0
34
27
0
13
6
0
10
7
23
13
31
11
0
26
0
0
0
58
0
0
0
0
0
61
0
60
0
0
0
0
0
0
0
0
0
0
0
0
0
0
0
0
0
0
0
0
0
0
26
15
0
9
27
5
50
1
3
11
0
0
1
8
17
9
37
12
15
54
0
4
9
11
24
6
54
27
13
29
5
49
0
0
0
0
0
0
0
0
5
11
6
0
0
0
0
0
0
0
0
0
60
0
0
59
0
0
0
0
0
49
0
0
0
72
19
7
4
5
17
0
52
4
4
3
4
60
28
19
13
19
8
0
2
7
0
23
13
24
19
33
24
21
13
0
0
0
0
62
0
0
60
0
11
0
50
10
0
53
0
0
0
0
0
0
0
0
0
0
0
51
0
0
0
0
0
0
0
7
0
4
0
0
0
2
10
8
0
59
4
3
15
13
21
51
6
23
0
21
58
4
71
53
13
0
32
24
56
0
0
0
0
0
0
0
0
0
0
3
0
0
0
0
0
0
0
62
0
0
0
0
0
0
0
0
0
0
0
58
0
0
0
0
5
60
35
0
0
13
0
28
9
8
5
8
28
11
3
0
0
62
0
4
9
15
27
21
21
12
56
10
0
0
0
0
0
0
49
0
60
0
0
0
0
0
0
59
0
0
0
0
0
0
0
0
0
0
60
0
0
61
0
0
0
0
0
60
0
9
0
0
0
5
32
17
3
3
4
4
9
65
32
14
0
0
0
8
46
13
22
0
52
38
40
25
0
0
0
0
0
0
0
0
0
0
0
0
0
0
0
0
0
0
0
0
0
0
0
0
0
0
0
0
0
0
0
0
0
0
0
0
0
59
0
0
2
0
25
6
14
9
4
11
5
11
15
14
0
61
24
6
8
44
19
0
21
13
24
27
6
0
0
0
0
0
0
0
0
3
0
0
0
60
0
0
0
0
0
0
0
0
0
62
0
0
0
0
0
0
61
0
0
0
62
0
0
0
0
3
1
59
0
57
1
7
23
13
24
11
24
30
0
0
8
32
36
19
3
0
55
0
29
39
32
0
0
0
0
0
0
49
0
0
56
0
0
0
0
0
0
6
71
7
0
0
0
0
0
47
0
0
0
0
0
0
60
0
0
0
24
21
6
57
0
0
1
0
32
17
3
6
9
29
27
7
10
33
60
0
33
8
11
0
0
4
0
31
14
28
0
0
2
59
0
0
0
0
0
0
0
0
0
0
0
0
0
0
61
0
0
52
0
0
58
0
0
0
0
0
0
0
0
0
29
10
0
0
0
0
0
0
61
1
0
0
6
10
58
0
61
15
0
0
27
64
0
0
0
0
23
15
24
56
0
45
0
1
5
0
0
0
0
0
0
0
58
0
0
0
0
5
0
0
0
0
0
0
7
0
0
6
0
10
0
0
58
9
30
33
0
0
0
55
0
0
26
5
0
0
61
0
0
0
31
12
61
9
26
11
26
1
0
0
13
6
24
21
0
0
0
58
0
56
2
49
0
0
0
0
0
0
0
60
0
0
0
0
0
0
0
62
0
8
0
8
58
0
0
0
0
40
0
60
13
8
1
0
7
1
13
20
58
0
0
0
59
0
19
3
1
24
90
9
0
0
68
0
0
49
24
23
8
8
0
0
0
0
0
0
0
58
0
0
0
0
0
0
0
0
0
50
0
0
0
0
0
9
2
0
0
0
4
6
6
32
5
0
3
0
16
17
7
0
3
11
2
14
61
0
2
11
61
0
4
21
9
25
0
4
0
1
7
8
2
34
28
0
13
0
0
0
0
0
4
1
0
5
0
59
0
0
0
0
0
1
0
0
9
0
0
56
0
0
7
11
17
55
16
21
0
62
0
0
0
61
11
1
1
0
18
0
6
8
9
6
14
0
22
13
33
62
11
0
40
4
12
4
3
69
16
6
6
0
6
61
1
6
7
54
0
0
0
0
0
59
0
0
0
16
15
23
16
7
0
16
0
5
0
12
6
14
11
3
5
0
0
0
0
0
0
0
0
0
0
0
0
0
65
11
2
0
14
65
3
26
37
6
9
12
18
55
9
10
39
14
77
29
15
9
1
10
7
15
7
0
0
0
0
0
0
10
62
2
7
4
62
1
17
1
18
0
54
0
15
10
19
11
0
0
0
0
0
0
0
3
8
4
0
0
54
0
15
9
13
20
44
26
20
33
55
10
10
14
12
11
10
27
27
18
0
11
10
11
16
8
11
4
28
60
16
0
0
14
31
0
0
0
4
12
0
2
5
61
14
0
11
5
8
30
0
57
0
0
0
60
0
0
0
0
0
60
0
0
0
0
26
17
11
8
47
53
30
10
20
14
6
5
23
8
9
21
30
29
23
3
4
8
6
48
12
19
10
6
15
15
9
3
7
8
0
20
24
11
11
53
7
10
7
0
10
0
5
15
4
8
0
0
0
0
0
0
0
44
0
0
0
0
0
0
28
12
0
0
58
7
17
46
11
10
10
10
0
15
18
8
1
45
4
22
8
55
8
10
11
8
10
1
2
7
0
5
61
0
3
33
22
5
0
4
2
0
0
3
17
1
7
10
0
0
0
0
0
0
2
0
0
0
0
59
0
0
51
0
99
0
60
0
13
4
1
21
0
2
7
1
9
12
7
0
0
19
10
55
0
0
16
0
0
5
0
0
0
1
0
0
0
0
56
0
0
0
56
0
54
0
0
0
0
47
19
62
0
0
0
61
0
0
9
0
59
0
0
0
0
0
0
0
55
0
0
8
4
29
15
18
67
0
1
60
0
60
0
0
57
7
24
3
0
0
0
0
0
61
0
60
0
0
58
0
0
4
0
0
8
0
14
0
0
0
0
0
0
0
17
2
0
0
0
0
0
0
0
0
0
3
3
3
0
0
0
27
16
0
0
59
24
27
55
7
0
0
0
0
0
0
0
19
0
0
70
37
7
0
0
0
0
0
0
0
0
0
0
0
0
7
0
60
0
10
0
0
0
0
0
0
5
0
36
22
0
0
0
0
62
0
0
0
54
0
0
0
0
0
0
11
0
0
0
2
99
24
17
0
0
10
0
0
0
0
0
0
0
35
4
39
12
0
17
0
0
51
0
0
0
0
0
14
0
59
0
0
0
0
0
0
0
0
60
0
59
0
23
2
63
9
0
0
0
0
0
0
0
2
0
0
0
0
4
62
0
0
9
61
32
37
18
17
57
3
0
61
0
0
49
0
0
3
0
23
23
0
0
63
0
0
0
0
0
0
0
0
0
0
5
0
3
0
2
0
0
0
0
0
0
9
0
3
26
17
0
0
0
0
0
0
0
0
63
20
3
0
27
0
1
0
4
22
20
13
0
0
30
15
0
0
0
0
0
0
0
6
17
12
61
27
0
0
0
0
59
0
60
0
0
3
0
13
0
8
1
13
0
60
0
54
0
0
0
0
0
0
0
9
15
56
2
52
1
0
57
0
0
0
0
0
17
0
0
10
20
40
31
2
9
13
0
60
0
0
0
0
60
0
8
0
61
0
26
15
59
0
0
0
0
0
0
0
0
6
59
0
0
14
53
0
7
1
0
0
0
57
0
0
64
0
0
52
17
0
4
2
12
0
0
0
0
58
0
59
25
0
0
50
43
7
22
0
0
0
0
0
5
0
58
0
0
0
60
0
0
0
20
29
5
0
0
0
10
0
0
0
0
0
4
0
60
0
0
0
0
0
0
0
0
0
0
0
0
0
5
2
30
17
27
13
0
24
12
4
10
2
15
0
19
49
0
0
14
10
31
56
0
1
0
8
0
0
3
6
0
0
0
0
0
0
8
62
18
47
3
0
0
61
0
1
0
3
0
2
53
7
9
4
2
7
0
62
0
0
61
0
60
0
63
8
8
61
21
2
57
5
0
0
18
12
16
36
4
0
2
0
9
12
27
34
0
0
55
9
52
3
0
0
0
61
0
51
3
0
62
33
26
7
0
0
0
0
4
1
0
0
63
0
17
0
0
7
7
10
1
0
3
2
15
0
0
0
7
9
0
4
6
9
5
0
60
0
8
4
62
41
0
1
4
9
14
31
17
14
40
3
13
2
14
0
5
12
0
0
0
0
0
3
0
2
36
22
58
2
57
3
19
5
0
9
0
27
3
0
60
0
61
0
0
60
0
0
0
61
0
0
14
57
12
62
0
9
11
9
0
0
6
16
21
24
1
21
3
18
19
24
0
11
51
9
20
0
2
5
61
0
0
0
5
11
2
52
2
2
20
19
12
0
0
27
0
9
0
0
2
0
14
0
2
0
0
0
16
5
0
0
0
0
4
0
0
8
12
1
1
3
37
16
23
0
47
20
3
63
0
0
16
26
59
10
1
12
1
5
11
7
0
0
0
0
5
0
0
58
3
3
0
61
7
26
14
13
0
0
6
57
1
10
0
10
2
3
1
0
7
3
2
35
0
15
14
7
6
52
13
56
18
13
62
6
24
61
15
1
29
62
14
10
0
59
3
32
4
19
15
59
1
0
12
25
9
0
0
0
11
10
0
0
6
13
0
0
5
17
18
63
0
3
0
6
1
4
6
5
3
0
0
13
0
12
0
5
58
4
4
0
2
4
8
2
12
9
0
0
5
16
15
16
21
2
13
19
9
17
0
3
9
65
1
0
0
3
17
51
0
0
56
0
2
0
6
6
4
0
10
51
0
8
17
16
14
61
5
5
1
6
2
0
5
10
4
0
5
6
49
0
0
0
59
11
4
8
1
20
6
27
9
11
2
64
0
10
10
7
23
0
3
0
3
12
11
9
15
0
4
0
3
0
4
0
3
0
0
0
7
3
5
60
4
0
0
22
54
6
10
11
0
11
16
0
0
61
2
67
0
17
0
5
3
0
6
6
11
0
1
0
28
55
23
13
49
15
0
4
13
9
22
63
8
4
0
13
4
56
11
7
5
14
15
1
0
0
0
12
61
1
0
20
61
0
0
14
0
0
17
1
4
18
55
0
60
3
0
0
8
0
5
2
12
0
0
55
5
0
5
3
0
61
13
0
7
8
29
11
5
4
12
24
4
0
0
14
13
0
52
17
13
9
45
2
13
3
1
16
15
0
9
4
1
0
0
0
0
13
3
16
49
18
0
0
32
22
5
4
0
12
1
0
0
4
3
21
62
2
10
19
46
1
0
16
16
9
0
10
24
8
21
11
1
7
0
0
8
8
10
29
19
11
0
4
18
6
14
6
0
0
51
12
1
0
0
10
58
3
0
7
12
8
5
0
0
10
61
2
9
12
22
54
1
0
6
0
0
1
1
0
17
3
15
15
8
5
14
0
0
4
8
60
11
13
57
6
55
34
17
36
3
51
22
28
18
26
5
50
14
7
54
10
61
21
31
9
0
4
65
4
0
9
9
3
9
3
56
23
43
26
17
7
9
6
25
3
19
58
11
64
49
5
17
54
8
0
3
2
