60
59
60
60
60
61
60
61
58
61
61
61
61
60
51
63
61
61
61
60
60
61
61
61
61
61
61
61
61
61
51
63
61
51
63
62
61
60
60
60
60
60
60
60
60
60
60
61
60
61
60
60
61
61
61
61
61
61
61
60
61
60
61
61
61
61
61
61
51
62
61
61
59
52
63
62
61
60
61
61
61
51
62
61
61
58
52
63
62
61
60
61
61
61
51
62
61
61
61
61
60
60
60
61
61
60
59
52
63
61
58
61
62
61
51
62
62
60
61
61
60
61
60
61
60
61
61
61
61
51
62
61
61
61
60
61
61
60
60
60
61
68
60
59
58
59
61
61
61
61
60
51
63
61
51
63
62
61
51
63
51
63
61
61
60
60
59
61
61
61
61
61
76
57
53
65
58
56
63
62
61
60
61
60
61
61
61
61
61
61
61
60
60
60
60
61
60
61
61
61
60
51
62
61
69
60
57
52
60
66
51
63
62
60
59
61
61
61
61
61
61
61
60
60
61
61
61
61
51
63
62
61
61
61
61
55
62
56
49
67
73
52
58
55
62
62
62
61
60
61
61
61
61
61
61
61
61
60
51
62
61
61
61
61
70
63
64
63
53
60
61
60
66
64
58
57
69
60
51
62
62
61
61
61
61
61
61
61
61
61
61
60
60
60
60
65
52
62
52
57
96
62
53
49
69
65
52
61
63
60
57
61
60
59
61
61
61
61
61
61
60
61
61
60
60
60
61
61
53
54
59
56
56
64
54
49
71
64
66
99
48
53
62
59
61
61
60
61
61
61
61
58
61
61
61
58
61
66
53
57
58
54
54
55
60
66
81
47
55
71
69
55
59
60
60
59
60
60
61
61
60
51
62
62
61
61
61
60
72
60
52
61
53
62
71
55
54
70
61
58
62
61
67
58
61
58
60
60
60
62
61
60
51
63
62
61
60
61
60
51
79
59
60
65
60
62
56
62
57
59
58
52
60
66
54
62
57
62
58
61
62
56
61
61
61
61
61
60
51
62
61
61
59
67
56
44
54
53
53
66
56
60
61
55
71
67
71
60
60
60
59
60
54
67
60
61
61
61
60
60
60
61
58
61
60
64
61
57
60
58
63
57
66
49
63
56
68
50
58
60
62
60
61
60
60
62
60
60
60
61
61
61
60
61
61
61
60
68
54
60
60
61
61
63
56
62
63
78
99
62
69
57
60
61
61
60
61
62
60
51
56
63
61
61
61
60
61
62
60
57
62
56
55
55
66
55
58
99
50
56
59
59
61
55
61
56
62
61
61
62
61
61
51
62
62
62
62
61
59
58
65
60
60
59
63
51
62
61
60
63
63
54
60
53
59
73
63
59
53
61
64
62
60
61
60
61
61
61
64
53
59
67
71
58
52
86
50
63
51
53
55
63
76
63
56
59
55
66
56
62
52
62
61
60
55
63
61
64
61
61
56
59
54
60
54
53
64
61
61
63
61
61
53
64
65
59
57
51
59
57
70
61
57
66
59
61
60
56
58
61
44
61
52
72
51
72
61
55
61
54
62
56
63
61
99
63
46
69
55
63
54
56
90
53
61
57
57
45
58
59
63
61
56
59
61
52
55
73
61
57
62
67
58
56
62
52
59
60
99
56
51
59
59
54
56
57
62
61
58
61
58
62
61
57
62
61
57
62
60
54
62
51
62
58
61
62
61
51
62
55
55
61
60
52
54
56
65
74
57
61
60
59
60
62
59
51
64
59
62
61
61
52
58
63
60
59
62
57
62
99
58
73
61
60
62
58
60
55
65
63
54
52
62
62
60
61
61
60
51
62
61
61
61
61
73
59
61
61
63
61
58
61
62
57
56
56
63
60
60
60
61
62
58
54
63
65
62
59
59
59
60
63
60
50
55
62
75
56
54
57
56
56
55
55
63
83
59
62
60
58
62
61
59
60
67
64
62
57
61
61
61
52
63
61
89
59
61
60
65
58
58
63
57
56
59
62
63
99
56
64
54
61
60
60
60
61
61
58
61
60
57
63
57
62
59
61
61
60
60
61
61
46
58
67
34
60
58
54
71
59
67
61
54
62
61
60
54
61
55
66
63
60
60
62
49
54
52
63
54
57
53
63
73
63
61
71
64
52
64
54
76
59
59
54
62
51
55
57
55
60
57
57
53
64
62
50
65
61
51
53
58
63
62
61
64
53
53
77
55
63
54
56
60
65
50
63
62
61
51
62
62
51
56
63
63
63
62
62
57
61
52
52
52
56
62
63
58
55
48
63
50
58
58
59
76
70
60
59
59
61
64
82
60
50
62
51
60
62
62
61
58
62
55
77
