5.721112219663204712e-04
1.201224795999156214e-05
1.338998766317045508e-04
4.793936366642714830e-05
1.340647168224240460e-05
6.679075947146895231e-05
2.260037270194192871e-04
9.967468214948649319e-04
2.215915470505924745e-04
5.515487256879669786e-05
1.318330522230848345e-04
9.262396657662153032e-04
9.182082001624181089e-05
2.084885425314153551e-04
7.605248626716409888e-04
3.766139441206961536e-04
2.063342040303783875e-05
1.252366902271262461e-05
1.360313688891778838e-05
9.445550455775553189e-04
1.177184475291692678e-04
6.589582190241749515e-06
7.063091287917711014e-05
1.661048321233149494e-05
1.992800423461504877e-04
8.684565930450194315e-05
3.406790963000894124e-05
1.426944855289491443e-04
1.073189526979989594e-04
7.676190922834003061e-05
9.931412504249337303e-05
1.363096144101350049e-04
3.378821765709361102e-05
2.902353383871236758e-05
7.072036854516294824e-05
1.157202375323684862e-05
2.783067502565295115e-05
1.634549453082279058e-04
6.286485308447664622e-04
5.171598375964814309e-04
7.572274540678103349e-04
8.850604363113134809e-04
2.804749059845956793e-04
8.083977901396366406e-05
6.701830099997696522e-05
9.712189147988992133e-04
7.225384829367964556e-05
9.262504817575401006e-05
6.747161956456304566e-04
3.766935951713401565e-04
1.755422698872521892e-04
1.015575353753295218e-04
2.913152064820678788e-05
9.326349484127804956e-04
9.515267882428402046e-04
4.098963628047513907e-04
9.060610857702933174e-04
6.300134432974946463e-04
3.368074169550760999e-04
1.418140802432743541e-04
1.895488758951735520e-04
2.077358813077356814e-04
2.537743120478719305e-05
8.517852536110703809e-04
3.579297066784725700e-04
4.192207644715395531e-05
4.156079770578635646e-05
8.089189610590574731e-04
7.917111476890559274e-04
7.304048157735776314e-04
6.678629322494078480e-04
9.500838516367515751e-04
5.889884657800381618e-04
7.236372082215503099e-04
6.686210973454453921e-04
9.968104163883273472e-04
1.733759405341261939e-04
3.433057382767890076e-04
6.071048319422622797e-05
7.696041774929440749e-05
6.449629535376644185e-05
9.287344147068665734e-05
8.055632455529204705e-04
9.148655507998926240e-04
5.674678526182974636e-04
3.935867015245619882e-04
9.841008045852195352e-04
8.943512426650146452e-04
6.179147829372677592e-04
9.133513793029290895e-04
8.598902588643486666e-04
1.553329585476381780e-04
1.043216790024281693e-04
8.346826460018386129e-04
2.072005081461547604e-04
5.778185657523415841e-05
1.381159417881416829e-04
4.893312407732164360e-04
9.742342075197418794e-04
8.532529848751524426e-04
9.724217361900544532e-04
9.369552857851903838e-04
7.191705353123412081e-04
6.599983556172528409e-04
7.633446135419941214e-04
2.154080310670991594e-03
1.425045593504981056e-04
4.128367900612106567e-04
6.074935027056138637e-05
1.100314943009994550e-04
3.658677579199132168e-05
4.320397225179295475e-04
1.320518274509074885e-04
9.652049557318242989e-05
3.454808820865240548e-04
8.969200137144417440e-04
5.741001022521174946e-04
6.410208082111568118e-04
9.974070841740623194e-04
9.358393500153994182e-04
6.511395411240572528e-04
2.361466182710936224e-04
9.723912532039191703e-04
4.430347917872001773e-05
6.374523855584568466e-04
6.887260457321131568e-04
2.258583445819972724e-04
2.685645337641151542e-05
9.000257453641857808e-04
6.803741980365707320e-05
5.421758245509611385e-04
7.262862119935542538e-04
7.449050732976081335e-04
8.004641159982117671e-04
1.898366370292059457e-04
9.282162148908090771e-04
7.535557022385619419e-04
9.487287053737691878e-04
8.252674920963265492e-04
8.430079349083241524e-04
1.920793724968783422e-04
2.680799257860355667e-04
2.870597794754070620e-04
8.794315839064648088e-04
6.602172531451344639e-04
7.092516606639343024e-04
9.765674828369208527e-04
9.946533617143371586e-04
9.670714359236720625e-04
9.143260473279957168e-04
4.965167183376140159e-04
6.876766379301235688e-04
8.335468232436582525e-04
7.745154974369006240e-04
1.878160615621515817e-04
5.768924404937481043e-04
8.224870862794109172e-04
6.221808877390211379e-04
9.859829599880853834e-04
8.303168713110764543e-04
2.973279848930143743e-04
8.874723442997556333e-04
8.600484132350594280e-04
8.934814665836343650e-04
9.202092065937472753e-04
4.411734425149305139e-04
7.278554091698641315e-04
9.132219884528947063e-04
6.847148805133596028e-04
3.665136762955878424e-04
9.271764156043582616e-04
7.662485407188279751e-04
7.694372195778953483e-04
6.715341020232523661e-04
8.499606946292814769e-04
7.966429950958531236e-04
9.843118524904825861e-04
7.752290910333359264e-04
9.063647587401746364e-04
7.236818358755670033e-04
9.128371910336330330e-04
9.689695090286942758e-04
5.235258865432523834e-04
7.121486724915859767e-04
9.647689592768848854e-04
8.925038947483754370e-04
9.184859867206185413e-04
7.120591679055099377e-04
8.244089853959302161e-04
8.680531893500154084e-04
7.465860096632637166e-04
7.957210482130161466e-04
9.363292383028909427e-04
8.531376151718061962e-04
8.174261237865465546e-04
8.192415402903385768e-04
6.192173977151993469e-04
9.164992184778064654e-04
8.611717870796731233e-04
8.080274171509138625e-04
5.803781825561848962e-04
5.834835540259319941e-04
8.394163971289225756e-04
5.679866656431720173e-04
9.611441866183012550e-04
5.142474353819759258e-04
8.745728481167613921e-04
9.132414780202990912e-04
8.534891413153333772e-04
8.421275944364703392e-04
7.046958730925201309e-04
9.143397434254740830e-04
2.740469086620622718e-04
9.298873743647240175e-04
7.197543695803831909e-04
9.810695319339979292e-04
8.480905562157081690e-04
9.596313795728894647e-04
7.904382212295946175e-04
7.260955924602852107e-04
8.151487481120600620e-04
6.577659470996533031e-04
9.972244854153933247e-04
6.993004379037826013e-04
7.006213008144968057e-04
7.664596367520370990e-04
9.611939264607682887e-04
5.433431085015705264e-04
7.863787651007925206e-04
5.013472078269076704e-04
9.720201299814323903e-04
9.826686197195177996e-04
9.976022639586190621e-04
9.415750840181535963e-04
2.628954080486911593e-04
7.900036115700004302e-04
9.012931503455945403e-04
8.617413795258821452e-04
8.635188200125654134e-04
7.512409907890482685e-04
9.480471335749918183e-04
5.016171349834230853e-04
8.309558575765318977e-04
7.258846249151851282e-04
8.248601404400313086e-04
5.101487816057126423e-04
8.467039236054185736e-04
8.367335980634660331e-04
6.810501241079069956e-04
8.316253840702225730e-04
9.096937918907643805e-04
8.813751175247297454e-04
9.121275740742174065e-04
8.307600741780385434e-04
8.565838308940421086e-04
9.461472565611694918e-04
