9.281634947725381224e-04
9.676117953961727025e-04
9.626519611465322868e-04
7.777144204424990548e-04
9.560510563041413334e-04
9.562932581544947297e-04
8.559122721100154152e-04
9.978567194457443890e-04
9.970573548591099566e-04
8.523293637032747228e-04
9.801155029912633765e-04
8.046949334897801620e-04
9.230008205233231067e-04
8.320481255805756149e-04
7.890456043366800287e-04
7.730417588537319418e-04
8.075469000952129051e-04
9.177854020675502156e-04
9.456557203167959003e-04
9.417292258406817496e-04
9.558603615579253088e-04
8.370149227616696663e-04
5.026332542287237359e-04
9.477132802220289420e-04
9.597525261008099662e-04
5.705466266733294489e-04
9.796626062820168457e-04
9.463328714065522007e-04
8.542706447609571541e-04
9.490993514290613220e-04
8.262172740612916400e-04
8.397218873245071435e-04
7.961314263890129084e-04
9.241660692093089935e-04
9.672290385609461083e-04
8.133753814733024612e-04
8.515473727951361482e-04
9.207083454035869252e-04
7.339463189802719612e-04
9.864792432199287475e-04
9.134661641823083045e-04
8.117876333212370454e-04
8.937352042512891614e-04
8.456063887338771679e-04
5.612016160932986608e-04
9.902519973177259516e-04
9.109916036811327444e-04
5.400022681570915140e-04
8.675342425602527996e-04
8.255435549794354344e-04
9.519743037716965617e-04
9.074111994563649475e-04
9.878932781098859195e-04
9.681201548706885873e-04
1.890841506073770439e-03
9.212689618257607904e-04
7.068491789474773412e-04
9.105210612082581534e-04
8.401638518510390341e-04
9.238329918389576179e-04
9.046309984452882702e-04
9.384283127915615808e-04
9.032477673702743459e-04
9.927131580841352942e-04
9.707125100830715780e-04
8.765582154184325958e-04
9.818204323904788922e-04
9.947023067904403604e-04
8.562540902173898516e-04
8.599622695932840344e-04
9.257614324544860551e-04
6.784851306260719639e-04
7.245249601465220124e-04
6.075896006051406673e-04
9.172740919872746090e-04
8.161857817017281747e-04
8.530560456574409756e-04
7.866772068714222854e-04
8.704351494857043292e-04
9.910943972744057362e-04
9.850483202811233241e-04
9.760089653487735717e-04
6.941192962420794643e-04
6.004862344894945636e-04
8.912576318430565081e-04
8.202330581691397171e-04
9.087812447824417106e-04
9.967015392016165265e-04
9.766294519584217682e-04
9.595410219072064706e-04
9.516628073543698108e-04
8.807476378970280351e-04
8.013936545662181388e-04
8.780490997269962961e-04
8.128973160219654659e-04
9.089212261521595337e-04
9.021796711305984928e-04
9.235504489767398795e-04
8.460947019974796035e-04
9.512790709764740171e-04
8.957814042178657843e-04
8.055774242707869348e-04
6.956382175379305366e-04
7.459329163047589972e-04
7.184698349606000178e-04
2.346866512332290711e-03
9.501631279966726851e-04
8.339462069133496414e-04
6.088506422680106667e-04
9.628067017554142737e-04
8.384642696451782840e-04
8.823376579760733307e-04
9.547578362902875426e-04
9.846150937447006868e-04
6.313832737921964977e-04
9.697180804599803139e-04
9.351214908733807007e-04
7.204189296374785556e-04
9.416389623236876005e-04
9.808365822381315269e-04
7.955807634048017718e-04
2.423468996769595485e-03
6.875741077094765785e-04
3.692944659533514695e-04
7.323760564654779870e-04
8.812303227143658546e-04
8.611648821452710933e-04
8.975922056304597163e-04
9.117124902888740223e-04
9.275279876737041462e-04
7.911500867382459390e-04
4.426632469375357815e-04
9.456348366824185447e-04
6.023286360341550960e-04
9.238693263781128096e-04
8.964901678526482343e-04
9.974273457606930293e-04
7.961234802417171963e-04
9.058429215565988457e-04
9.723843176867585925e-04
7.023517779096710711e-04
9.846668961362992079e-04
8.010160715598013681e-04
6.868114776878986305e-04
6.073999103826110968e-04
9.586069890503701174e-04
8.692621499520880590e-04
9.413368300285052115e-04
7.588192304204266492e-04
9.132841634450494794e-04
2.372958332435337603e-03
8.119903545623641250e-04
9.530092511389476329e-04
7.506674069417407225e-04
9.983305233717265637e-04
8.300934558512773620e-04
9.961384616358204269e-04
9.459441298836912537e-04
7.890759547872772117e-04
8.633186191313590996e-04
9.982000669001012128e-04
9.663704832549857571e-04
8.081232391596859799e-04
9.017563779583070982e-04
9.452433179191199741e-04
6.849973602437442466e-04
9.352324760120156455e-04
9.266795946538675111e-04
7.946913164064151047e-04
8.259121179644557387e-04
9.415785106809959615e-04
9.948958590528800272e-04
8.762902880530276661e-04
6.813140668833206348e-04
7.848126560127122175e-04
9.989727754361465983e-04
7.749884762346948008e-04
7.009431584688030625e-04
8.179021617013004786e-04
5.716641393079813227e-04
6.926018880363260521e-04
9.048527136100714685e-04
7.178931352872508498e-04
7.799911636722223207e-04
9.042637208211967703e-04
9.591139934155279434e-04
6.337576153573332149e-04
9.523692328057276058e-04
7.974394978856880201e-04
9.000610213831805595e-04
8.629858898856479499e-04
8.200751836908715120e-04
5.905545834764547308e-04
8.896908306189610371e-04
8.226633642562930504e-04
8.574592541539249879e-04
9.543183018259071559e-04
9.672637265698558195e-04
9.623092427953894301e-04
8.520058554793985550e-04
9.419630247301524761e-04
5.778992819328587771e-04
8.108280706657922110e-04
9.326130249347475143e-04
7.858956021057350583e-04
8.935978242269326799e-04
8.736006720193589814e-04
9.141100431696580486e-04
9.336039708559562555e-04
9.060450756891436086e-04
8.368994052887490653e-04
8.135070848847014702e-04
7.780247119734129413e-04
9.360233652572214069e-04
7.424173171853842845e-04
8.827370126401890005e-04
7.032315289532409253e-04
6.344192673046755715e-04
7.303352213944291904e-04
8.491687276650505822e-04
9.643340554339463466e-04
9.388867764515973491e-04
7.929342801963334963e-04
9.870613215731127710e-04
8.576716724737476483e-04
8.001895762433930415e-04
8.542538739216842814e-04
8.600898285711089386e-04
7.237938826147871652e-04
6.173077442978014417e-04
8.317409192166724807e-04
8.515927201789841305e-04
9.255310423439411238e-04
9.903236489198219417e-04
9.298540567294066861e-04
9.183969547269521527e-04
7.555195165406258795e-04
8.958654666177956472e-04
8.469352945909003338e-04
9.608803087867157089e-04
9.737355029620919922e-04
9.150885225066573980e-04
9.723114442365954346e-04
9.139390216518217258e-04
9.583366295715656236e-04
6.524847601006023012e-04
8.112903979266006260e-04
7.275054800177649383e-04
9.232051863564683103e-04
9.373238504835068596e-04
9.689009102071821644e-04
6.928361224916024241e-04
7.813528123296054062e-04
9.265472460279200462e-04
8.742158748352713005e-04
9.779793576981665737e-04
