0
0
0
0
0
0
0
0
66
0
85
0
0
0
0
70
0
67
0
0
0
0
0
0
0
0
0
0
74
0
0
0
74
0
0
0
0
70
0
0
72
0
0
0
0
0
0
0
0
0
0
1
0
73
0
0
0
0
0
0
0
0
0
0
0
72
0
0
70
0
0
0
0
0
10
0
0
63
0
0
0
0
0
0
0
0
0
69
0
0
72
0
0
0
73
0
0
0
0
0
0
0
0
0
0
0
0
0
0
0
0
0
0
1
71
0
0
0
0
0
69
0
0
0
0
0
71
0
0
0
0
0
0
0
0
0
0
0
0
0
0
0
0
69
0
0
0
0
0
0
0
0
0
0
0
0
0
0
0
0
0
0
0
0
0
0
0
0
0
0
0
0
0
0
70
0
0
0
0
0
71
0
0
0
0
0
0
0
75
0
0
1
0
0
0
0
0
0
0
68
0
0
0
0
0
0
0
0
0
0
0
0
0
0
74
0
0
0
0
0
0
71
0
0
0
0
0
0
0
0
0
70
0
0
0
64
0
0
0
0
0
0
1
0
0
0
0
0
0
0
0
0
0
0
0
0
0
0
0
0
0
0
0
0
0
0
0
0
0
0
0
0
0
0
0
0
69
0
0
0
0
0
0
57
0
0
0
0
0
0
0
0
73
0
0
0
0
0
0
0
0
0
0
0
0
0
0
0
81
0
0
0
0
0
0
0
0
0
0
0
0
71
0
0
72
0
0
0
0
0
0
0
0
73
0
0
0
0
0
0
0
0
68
0
0
0
0
0
0
0
0
70
0
0
0
0
0
0
0
0
0
0
0
0
0
0
0
0
0
79
0
10
0
0
0
69
0
0
0
0
0
0
6
0
0
0
0
0
0
0
0
70
0
0
71
0
0
0
0
0
0
70
0
0
0
0
0
0
0
0
0
0
66
0
0
0
0
0
0
0
0
0
0
0
0
0
0
0
0
0
0
0
0
1
0
0
1
0
0
0
0
69
0
62
0
73
0
0
0
0
0
0
0
0
0
0
0
0
0
0
0
0
0
0
0
0
0
0
0
0
0
0
0
68
0
0
0
0
0
0
0
0
68
0
0
0
0
0
0
0
70
0
0
0
0
0
0
0
0
0
0
0
65
0
0
0
0
0
0
0
0
0
0
0
0
0
0
0
0
0
0
0
0
0
70
0
73
0
0
60
0
0
0
0
0
0
3
0
1
0
68
0
0
68
0
0
0
0
0
0
0
0
0
0
0
0
0
75
0
0
64
0
0
65
0
0
0
1
0
0
0
0
69
0
0
0
0
70
0
68
0
0
0
0
0
0
0
0
0
0
0
0
0
0
0
0
0
0
0
0
0
76
39
37
37
51
36
0
0
0
0
0
70
0
74
0
0
0
0
0
0
0
0
0
0
0
0
0
0
0
0
0
0
0
0
0
0
0
0
69
0
0
0
0
0
0
73
0
0
0
0
71
0
0
0
68
0
0
0
0
0
0
69
0
20
49
24
6
4
0
28
34
54
16
32
0
0
0
0
0
0
0
0
0
0
0
0
0
0
0
0
0
0
0
0
0
0
0
0
0
66
0
0
0
0
0
0
0
0
0
0
0
0
0
0
0
0
0
0
0
0
0
0
0
0
0
0
0
32
51
3
2
0
65
34
28
37
66
0
0
70
0
0
0
71
0
0
69
0
0
0
0
74
0
0
0
0
0
0
0
0
0
0
0
0
0
0
0
66
0
0
2
0
0
0
68
0
0
0
0
0
0
0
0
0
0
0
69
0
0
0
0
38
39
6
67
0
5
28
38
52
55
6
0
0
0
66
0
0
0
0
0
0
0
0
0
0
0
0
0
69
0
0
75
0
0
0
0
0
0
0
0
0
0
0
0
0
0
0
0
0
0
0
0
0
69
0
0
0
0
0
0
0
0
0
41
89
44
4
13
0
0
43
37
40
45
30
14
70
0
0
0
0
0
0
0
72
0
0
0
0
0
0
0
0
0
0
0
0
0
0
68
0
0
0
0
0
0
0
74
3
0
0
0
0
0
65
0
0
0
0
0
0
68
0
0
0
0
0
28
18
23
41
77
62
38
45
39
43
76
24
27
26
10
73
0
0
0
0
0
0
0
0
0
0
0
0
0
0
0
0
0
0
0
0
0
0
0
0
0
0
0
0
0
0
0
0
0
69
0
0
0
0
0
0
0
0
0
0
72
0
0
30
38
72
24
58
38
45
42
35
57
44
41
61
69
61
38
31
20
23
71
0
0
0
0
0
0
0
0
0
65
0
0
0
0
0
66
0
73
0
0
0
68
70
0
0
0
0
0
0
0
0
0
0
0
0
0
68
0
18
53
38
21
38
75
66
77
48
45
39
38
90
17
13
20
32
79
57
36
43
50
50
41
33
10
0
0
0
0
0
0
65
0
0
0
0
69
0
0
0
0
0
0
0
0
0
0
0
0
0
0
0
0
0
0
0
0
72
0
66
0
0
0
38
42
24
71
30
40
28
65
44
25
27
37
24
26
17
46
64
34
47
37
40
46
44
72
46
14
0
0
63
0
69
0
0
0
0
0
0
0
0
0
0
60
0
0
0
0
0
0
72
0
0
0
0
71
0
70
0
0
0
0
0
0
0
6
31
50
3
0
0
7
67
28
42
98
25
38
68
7
32
34
2
41
17
31
41
34
56
30
21
52
34
2
0
0
0
0
69
0
0
64
0
0
0
0
0
0
0
0
0
0
72
0
0
0
0
0
0
0
0
0
0
69
0
0
0
0
36
46
74
34
4
71
0
0
14
33
42
39
16
55
64
26
37
39
29
84
54
37
99
63
31
38
32
99
36
6
71
0
0
0
0
0
0
0
0
0
0
75
0
0
0
67
0
0
0
0
0
0
0
0
66
0
0
67
0
0
0
0
0
28
45
85
3
67
0
3
0
69
21
23
65
63
49
99
28
33
64
19
37
36
43
39
38
33
41
0
0
0
0
0
0
0
0
70
0
0
0
0
0
70
0
0
0
0
0
0
0
0
0
0
0
65
0
0
0
0
0
0
0
0
3
1
31
43
23
46
11
99
0
5
0
0
42
81
42
28
41
54
33
20
48
26
23
63
37
68
37
41
44
35
73
0
0
74
0
69
0
0
0
0
0
0
0
0
0
0
0
0
0
0
0
68
0
0
0
0
0
0
0
0
0
0
0
0
31
11
2
69
13
78
12
9
0
70
0
0
19
51
47
52
44
47
48
48
47
39
32
68
20
35
24
42
39
4
0
0
0
0
0
0
0
0
0
0
74
0
0
0
0
0
69
0
68
0
0
0
0
0
61
0
0
0
68
0
67
0
3
12
44
99
1
3
9
12
19
69
0
0
0
2
33
27
48
40
44
50
28
43
64
73
76
62
16
67
37
41
38
0
0
0
0
0
0
0
6
0
0
0
0
0
0
0
0
0
0
0
0
0
0
0
0
0
0
0
0
0
0
0
0
0
64
31
11
12
22
32
0
15
9
23
8
0
67
4
77
41
0
0
50
26
98
46
58
68
81
96
34
32
47
48
38
71
0
0
0
0
0
0
69
0
0
0
0
0
0
0
0
0
0
71
0
0
0
0
0
0
0
0
0
0
69
0
0
0
38
38
12
14
63
34
12
26
8
72
0
0
12
2
13
19
0
40
29
28
87
93
59
44
99
44
52
49
49
42
9
8
0
73
0
0
0
0
0
0
0
72
0
0
71
0
69
0
0
0
0
0
0
0
0
0
0
0
68
0
0
0
0
0
46
45
16
31
96
99
15
21
23
11
0
0
99
22
73
14
45
56
31
24
30
14
55
42
52
99
51
49
45
66
0
0
0
0
0
0
74
0
2
0
0
0
4
0
0
0
0
0
73
0
0
0
68
0
0
0
66
0
6
0
0
0
0
71
40
61
17
9
12
9
28
15
77
11
4
2
35
23
30
14
34
62
75
20
9
14
69
42
73
48
61
77
72
46
49
3
70
0
0
0
0
0
0
0
10
18
28
0
0
0
0
0
0
0
0
0
0
0
0
0
0
0
0
0
69
0
0
0
12
52
43
29
27
2
5
0
25
20
5
69
21
18
58
46
47
50
25
18
15
18
26
40
38
59
47
40
48
65
50
0
0
0
0
0
69
0
0
0
15
29
18
0
0
0
0
0
0
0
0
0
0
67
0
0
0
65
0
0
0
0
0
0
8
30
24
71
9
8
12
15
85
36
0
4
34
26
40
46
37
41
29
16
18
12
31
29
52
53
53
50
39
29
28
4
0
0
0
0
0
0
0
0
0
0
0
0
0
0
0
0
0
0
0
70
0
0
0
0
0
0
0
0
0
0
0
0
0
69
13
61
0
0
10
0
18
24
9
4
16
69
22
37
23
48
17
6
72
2
71
49
46
41
50
56
49
37
0
0
0
0
70
0
0
0
0
73
0
72
0
0
71
0
67
0
0
66
0
0
0
0
0
2
67
0
0
0
0
0
0
0
0
0
0
39
0
8
31
0
69
18
13
13
20
11
15
30
77
16
0
2
0
6
41
52
46
67
54
57
99
61
0
0
0
0
0
0
0
70
0
0
0
0
0
0
0
0
0
0
0
0
0
0
64
0
0
0
0
0
68
0
0
0
0
0
71
0
0
93
0
0
17
2
9
23
11
71
35
43
35
26
54
41
1
0
49
45
53
52
34
3
33
10
41
39
29
40
0
68
0
0
0
0
0
0
0
2
0
0
69
0
0
2
10
0
0
0
0
0
0
69
72
0
0
0
0
0
0
0
0
0
0
50
32
0
2
70
6
17
2
38
65
39
48
81
25
36
1
46
27
44
52
67
67
0
20
71
20
46
70
6
0
0
0
0
0
0
0
67
3
0
0
0
0
0
2
10
7
5
66
0
67
0
0
0
0
0
0
0
0
0
0
0
69
0
23
45
18
17
23
27
7
0
16
2
27
15
31
60
32
70
30
63
6
42
64
70
36
2
11
5
2
56
43
32
0
0
6
1
67
0
0
0
0
0
0
0
0
0
60
11
72
1
0
0
0
0
0
0
79
1
0
71
0
0
0
0
0
0
38
38
10
1
8
6
0
0
8
67
13
71
16
27
36
33
45
46
0
5
78
41
2
64
0
0
24
39
38
39
9
0
0
4
0
4
3
0
2
0
0
0
74
0
0
0
0
0
0
0
0
0
70
0
22
7
8
5
4
67
0
79
0
26
42
26
2
14
6
0
20
35
18
8
0
1
0
0
0
72
42
40
17
99
46
40
40
0
17
0
26
37
65
44
71
6
0
0
2
6
71
0
0
0
0
0
0
0
0
0
0
1
70
0
0
0
0
0
2
13
8
2
2
0
0
5
7
41
40
30
15
31
13
11
6
70
30
30
69
0
2
72
0
0
38
25
69
71
58
62
6
0
18
14
20
19
52
39
32
29
6
0
12
8
10
0
0
0
0
0
0
0
66
0
0
4
0
0
0
73
0
0
23
9
32
14
6
68
18
20
22
57
4
0
3
0
72
30
18
6
14
18
26
24
9
4
9
1
32
20
0
38
67
48
24
34
37
21
17
71
29
44
64
8
72
8
6
0
17
14
19
67
3
75
0
16
5
0
0
10
0
25
2
27
24
0
71
17
26
55
37
14
25
72
38
43
2
65
0
1
10
10
11
2
7
2
99
28
11
5
66
8
19
0
70
48
64
38
58
0
31
25
17
35
25
41
51
22
7
42
19
44
72
27
31
24
0
0
3
0
0
0
0
0
7
71
24
21
21
19
43
3
34
10
76
2
15
15
40
15
0
0
2
0
0
70
0
0
2
3
0
0
73
0
37
42
6
29
15
50
99
58
85
67
33
37
49
29
15
28
47
33
38
29
44
53
21
35
80
40
32
0
0
0
67
0
0
29
10
17
35
72
6
13
72
12
79
22
21
27
4
29
24
27
0
0
0
66
0
0
1
70
0
6
68
0
0
0
45
38
43
47
60
60
45
49
32
22
37
39
30
35
28
32
99
53
11
29
24
40
31
24
27
16
33
41
30
0
0
18
52
24
12
20
23
15
26
23
37
19
11
32
53
7
27
49
9
9
67
3
0
3
2
76
0
0
6
12
0
0
0
0
66
44
26
40
66
99
43
76
40
71
39
27
31
34
25
55
33
36
37
34
25
15
25
22
69
27
21
25
48
76
32
82
40
25
72
37
48
11
14
23
76
25
18
10
16
3
83
59
2
3
3
0
1
0
8
23
4
0
0
5
0
0
0
0
41
8
27
0
32
99
44
68
45
27
32
29
31
43
66
18
39
47
62
29
20
68
20
12
40
9
19
13
11
27
11
27
16
12
35
36
41
30
74
16
19
15
6
3
14
6
29
30
75
2
62
0
0
69
3
2
0
0
19
68
17
0
0
3
34
24
68
7
44
46
26
45
36
17
14
99
23
24
12
15
6
72
43
34
0
0
27
0
0
5
0
4
1
0
4
7
0
77
7
8
10
0
36
0
2
75
0
72
0
24
35
35
4
4
0
0
0
0
3
4
2
0
0
0
0
0
2
2
75
9
15
64
39
70
38
73
31
21
51
4
14
21
27
18
13
19
49
59
69
0
2
0
0
3
0
0
70
0
0
68
0
0
9
2
42
16
0
2
1
0
6
0
0
2
43
34
2
0
0
0
0
0
0
67
0
0
11
66
0
68
33
45
24
6
10
32
50
69
46
37
67
0
13
2
69
0
26
32
94
28
42
45
30
4
0
1
71
1
3
5
3
0
0
0
4
22
1
0
0
68
47
6
0
0
9
5
1
18
33
29
71
10
0
0
79
1
0
0
0
1
0
0
0
0
32
43
3
80
3
38
35
41
42
14
0
28
2
0
0
0
14
15
33
14
72
50
49
13
7
54
9
6
77
6
0
72
4
71
2
7
4
0
6
3
19
3
2
0
0
69
3
8
40
50
30
34
0
0
0
4
1
0
75
0
0
23
0
0
31
36
4
1
9
53
44
46
20
72
18
0
12
3
2
0
5
18
31
14
56
41
65
31
2
7
3
0
0
2
3
0
0
0
0
3
79
2
67
7
15
19
0
0
0
5
7
1
6
20
41
25
0
0
0
0
3
2
0
5
19
0
68
0
39
10
15
27
21
80
44
68
7
15
33
30
6
1
5
2
75
0
13
7
74
30
40
40
12
7
13
0
2
11
0
9
8
16
2
0
11
6
4
6
73
10
2
3
0
15
23
3
69
2
92
36
54
19
3
74
2
3
0
0
0
1
0
0
46
8
74
8
35
40
64
26
40
19
14
0
73
6
6
10
2
21
9
33
33
15
41
64
3
8
0
76
2
66
2
3
12
7
6
2
14
64
1
17
14
15
13
3
0
0
0
1
1
2
12
39
36
24
7
32
1
4
70
0
74
40
0
67
38
7
3
2
91
40
38
25
18
7
13
2
17
4
1
69
6
11
10
18
15
20
30
77
74
13
0
14
34
17
9
74
10
14
67
2
10
1
7
16
19
14
4
71
14
69
0
7
0
2
38
37
69
78
49
36
18
30
18
27
8
18
25
18
34
23
86
9
36
50
66
12
13
61
6
25
6
7
11
17
11
2
66
2
11
9
40
49
41
70
30
45
71
19
10
2
19
5
7
26
19
13
20
89
19
29
6
9
37
28
12
74
15
2
35
40
28
16
99
42
21
74
10
47
68
76
69
47
13
18
7
12
99
38
47
16
19
12
21
18
75
21
15
2
24
15
8
13
67
16
3
40
54
38
3
2
9
5
13
16
16
13
13
6
10
65
29
21
22
67
22
23
73
14
3
12
2
16
55
32
14
9
21
28
27
45
0
0
50
36
39
42
31
42
19
37
41
40
64
28
20
24
76
19
14
16
8
12
22
55
6
5
72
43
15
25
74
39
11
10
14
14
13
19
10
66
12
12
17
11
21
13
10
26
15
20
21
22
21
8
20
8
70
36
12
19
14
69
40
97
39
0
44
43
34
32
13
26
37
44
77
42
37
18
27
19
33
28
20
14
16
17
4
5
13
70
30
82
15
27
38
48
24
11
47
11
10
20
9
24
17
13
27
13
21
11
21
15
9
16
17
16
20
24
28
21
16
26
77
4
12
53
32
34
37
47
86
12
19
68
15
22
2
48
42
39
25
17
68
16
23
12
87
17
64
13
13
19
16
13
26
17
13
12
63
43
87
45
3
2
32
15
20
13
14
19
17
17
18
78
22
39
15
14
71
28
17
41
87
34
35
24
38
25
27
36
62
32
31
49
23
16
20
30
8
24
23
33
32
45
71
17
26
4
18
24
79
48
18
41
7
22
19
20
64
19
17
39
26
51
91
19
22
22
28
80
23
14
22
27
76
22
19
28
25
32
22
15
50
14
21
21
28
15
25
20
25
30
24
68
15
68
39
73
44
25
20
9
32
73
17
38
25
32
43
25
18
78
24
19
17
3
17
25
15
18
31
26
27
15
24
35
25
31
99
33
22
24
41
26
26
36
16
32
17
22
16
19
16
22
22
4
18
25
9
67
46
69
15
29
70
32
36
34
30
34
23
80
20
17
81
30
31
17
20
38
22
70
17
16
22
27
25
15
19
29
16
66
16
19
26
22
24
48
20
11
99
46
38
49
20
16
17
38
17
24
22
43
23
22
18
16
78
23
27
15
68
16
21
22
56
19
21
25
27
30
68
73
12
36
39
44
67
28
54
26
71
43
31
18
20
24
42
25
20
31
22
23
28
31
22
27
32
20
20
13
17
20
29
59
30
16
26
52
24
71
18
24
24
34
78
69
24
27
30
15
25
15
54
25
23
23
17
28
18
31
39
68
24
22
25
43
56
44
19
25
15
36
40
18
22
20
99
18
29
14
18
26
33
23
22
73
37
18
72
51
32
22
18
23
28
72
11
20
20
22
47
43
46
15
21
15
16
17
30
23
13
26
88
33
26
12
72
15
30
25
37
92
28
22
15
30
31
18
42
29
14
31
47
35
41
44
36
84
14
35
32
15
24
14
23
70
15
17
16
16
23
55
48
38
83
37
19
71
19
25
22
17
23
35
31
79
47
26
20
29
21
22
70
58
19
29
32
55
21
18
25
23
27
28
17
70
16
22
39
33
24
61
14
28
25
38
57
23
34
31
34
27
20
13
27
67
29
15
24
17
21
66
5
20
79
37
17
32
20
28
25
32
27
27
16
72
25
36
32
36
47
99
39
35
76
21
46
21
18
16
38
16
22
75
