0
0
59
0
0
60
0
0
0
58
0
47
0
60
0
0
0
0
61
0
0
60
0
0
0
0
0
0
0
0
0
61
0
0
0
0
0
0
59
0
58
0
0
0
0
0
0
56
0
0
50
0
0
0
0
59
0
0
60
0
0
0
0
0
0
59
0
0
0
62
0
0
0
0
0
0
0
0
0
0
0
63
0
0
0
0
0
51
0
0
0
0
0
0
0
0
0
0
0
60
0
0
0
0
0
0
0
53
0
0
0
0
0
0
0
57
0
0
0
0
0
0
0
0
0
0
0
60
0
0
0
0
0
0
0
62
0
0
0
0
0
0
0
0
0
0
0
0
0
0
0
0
0
0
0
0
0
0
0
0
0
0
0
0
0
0
0
0
0
0
0
60
0
0
0
0
0
0
0
0
0
62
0
0
0
0
0
0
0
0
0
59
0
0
0
62
0
0
0
0
0
0
0
0
0
0
51
0
0
0
0
0
61
0
0
0
0
50
0
0
61
0
0
0
46
0
0
0
0
0
0
0
0
52
0
0
0
50
0
62
0
0
0
0
0
0
0
0
0
57
0
0
0
0
0
0
62
0
0
0
0
0
0
0
0
0
0
0
0
0
0
0
0
0
0
0
0
0
0
52
0
0
62
0
55
0
0
0
0
0
0
0
0
0
0
62
0
0
0
0
0
0
0
62
0
0
0
0
0
0
0
0
58
0
0
0
0
49
0
0
0
0
0
0
0
0
0
0
61
0
50
0
0
0
0
0
0
0
0
0
0
0
0
0
0
0
0
0
0
0
57
0
0
0
51
0
0
0
0
0
0
0
0
60
0
0
0
0
0
0
0
0
0
59
0
57
0
0
0
61
0
0
61
0
0
0
0
57
0
0
62
0
0
0
0
0
57
0
0
0
61
0
0
0
0
0
0
0
0
0
0
0
0
0
0
0
0
61
0
0
0
0
0
0
0
0
0
0
0
0
0
0
0
0
62
0
0
0
0
0
0
0
0
0
0
0
0
0
0
0
0
0
50
0
0
0
0
0
0
0
0
0
0
0
0
0
0
0
0
0
0
0
0
0
0
0
0
0
0
0
0
0
0
0
0
0
57
0
0
0
0
0
0
0
0
0
0
0
63
0
0
0
0
0
0
0
0
0
0
0
0
0
61
0
0
0
0
0
0
0
0
62
0
0
0
0
0
0
0
0
0
0
0
0
61
0
62
0
62
0
0
0
0
0
0
0
0
0
0
0
0
0
0
0
0
59
0
0
0
0
0
0
0
0
62
0
0
0
0
0
0
0
0
0
0
59
0
0
0
0
0
0
0
0
0
0
0
0
61
0
0
0
0
0
0
60
0
0
0
0
0
57
0
59
0
0
0
0
0
0
0
0
0
0
0
0
0
0
0
47
0
0
0
0
0
0
0
0
0
0
0
0
0
62
0
0
55
0
0
0
0
0
0
0
0
0
51
0
0
0
0
0
0
0
0
0
0
0
0
58
0
0
0
0
0
0
0
0
0
0
61
0
0
0
0
0
0
0
50
0
0
40
0
0
0
0
0
0
0
0
0
0
0
0
0
58
0
0
0
0
53
0
0
0
0
0
0
0
0
0
0
0
62
0
0
0
0
0
0
60
0
0
0
0
0
0
0
0
0
0
0
0
0
0
0
0
0
0
61
0
63
0
0
0
0
0
0
0
0
58
0
0
0
0
0
0
61
0
0
0
0
0
0
0
0
0
60
0
0
61
0
58
0
0
0
0
0
0
0
0
59
0
0
61
0
0
0
0
0
0
0
0
0
0
0
0
0
0
0
0
0
62
0
0
0
0
0
0
0
0
0
0
0
63
0
0
0
0
62
0
0
0
0
0
0
0
0
0
0
0
0
0
61
0
62
0
0
0
0
0
0
0
0
0
0
0
0
0
0
0
0
0
63
0
0
0
0
0
0
0
0
0
62
0
0
0
0
0
0
0
0
42
0
0
0
0
0
0
0
0
0
54
0
0
0
0
60
0
0
61
0
58
0
0
0
0
0
0
0
0
0
0
0
0
61
0
0
0
0
0
0
0
0
0
0
0
0
0
0
0
0
0
0
0
0
0
0
0
0
0
0
0
0
0
0
0
62
0
0
58
0
0
0
0
0
0
0
0
0
0
56
0
0
0
0
0
0
0
0
0
0
0
0
0
60
0
60
0
0
60
0
60
0
0
0
0
0
0
51
0
0
0
0
0
0
0
61
0
0
0
0
0
0
0
0
0
0
0
0
0
0
0
59
0
0
0
0
0
0
0
0
0
0
0
0
0
0
0
0
0
0
0
0
0
0
0
0
0
0
0
0
0
0
0
0
0
0
0
0
0
0
60
0
0
0
0
0
0
0
0
61
0
0
0
59
0
0
0
0
0
0
0
62
0
0
0
0
0
0
0
0
0
61
0
62
0
0
0
0
0
0
0
0
60
0
0
0
0
0
0
0
0
0
0
0
0
0
0
0
0
0
61
0
0
0
0
0
0
0
0
61
0
0
0
0
0
60
0
49
0
0
0
0
0
0
0
0
0
0
0
0
0
0
0
0
0
0
0
60
0
0
0
0
0
0
62
0
56
0
57
0
0
0
61
0
0
0
0
57
0
0
0
0
0
0
61
0
0
0
0
0
0
0
0
0
0
0
0
0
0
0
0
0
0
0
0
0
60
0
0
0
0
60
0
0
58
0
0
0
0
0
0
0
0
0
0
0
0
0
0
0
0
0
0
0
0
0
0
0
0
59
0
0
0
0
62
0
0
0
0
0
58
0
60
0
62
0
0
0
0
61
0
0
0
0
0
0
0
0
0
0
0
0
0
0
0
0
0
0
0
0
62
0
60
0
0
0
0
63
0
59
0
0
0
0
0
0
0
0
0
0
0
0
61
0
0
0
0
0
0
0
0
0
0
0
0
0
0
0
0
62
0
61
0
0
61
0
0
60
0
0
0
0
0
0
0
0
0
0
0
0
0
0
0
0
41
0
0
0
0
0
0
0
52
0
0
0
0
0
0
0
0
0
60
0
0
0
0
0
0
0
0
0
0
0
0
0
0
0
0
0
0
0
0
0
0
0
0
0
0
0
0
0
0
0
0
0
0
0
0
60
0
0
0
0
0
0
0
0
0
0
0
0
0
0
0
0
0
0
0
61
0
0
0
0
60
0
0
0
57
0
0
0
0
0
0
61
0
59
0
0
0
0
0
0
48
0
0
0
0
0
0
0
0
0
0
0
0
0
62
0
61
0
0
0
0
0
0
59
0
0
57
0
0
0
0
0
0
0
0
0
0
0
0
0
0
0
0
0
0
0
0
0
0
0
0
0
0
0
0
58
0
0
0
51
0
0
0
0
0
0
0
0
0
48
0
0
0
62
0
60
0
0
0
57
0
0
0
0
0
0
45
0
60
0
0
59
0
0
58
0
61
0
0
48
0
0
0
0
0
0
0
0
0
0
0
0
0
0
0
62
0
0
0
0
0
0
0
0
51
0
0
0
0
0
0
0
0
0
0
0
59
0
0
0
0
0
0
0
0
0
56
0
58
0
0
0
0
0
0
0
0
61
0
0
0
63
0
0
0
61
0
0
0
61
0
61
0
61
0
0
0
0
0
0
51
0
0
0
0
0
0
0
0
60
0
0
1
0
47
0
0
0
0
0
0
0
0
0
0
0
0
0
0
0
0
0
0
0
0
0
0
0
0
0
0
0
0
0
0
0
0
0
0
0
0
0
57
0
0
0
0
0
63
0
0
0
0
0
0
0
60
0
0
0
61
0
0
0
0
0
59
0
0
0
0
0
60
0
0
0
0
0
0
0
0
0
0
0
0
0
0
0
0
60
0
0
0
0
0
0
0
0
0
0
0
0
0
0
0
0
0
0
0
0
0
0
0
0
0
59
0
0
0
0
0
0
59
0
0
0
0
0
0
0
0
0
0
0
0
0
0
0
0
0
0
0
0
49
0
0
0
61
0
0
0
0
0
0
59
0
0
59
0
0
0
0
0
0
0
0
0
0
0
0
0
0
63
0
0
0
0
0
0
62
0
57
0
0
0
0
61
0
0
0
0
0
0
0
0
0
0
0
0
0
0
0
0
0
0
0
0
52
0
0
62
0
0
0
0
61
0
0
0
0
58
0
0
0
0
0
61
0
0
0
0
0
0
0
0
0
0
0
0
0
0
60
0
0
0
0
61
0
0
0
0
0
0
0
0
0
0
0
0
0
0
0
0
50
0
0
0
0
0
0
0
0
0
0
0
0
0
0
0
0
61
0
0
0
0
0
0
0
0
0
0
0
61
0
0
0
0
60
0
0
0
0
58
0
0
0
0
0
0
0
0
0
0
0
0
0
0
0
60
0
0
0
0
0
0
0
0
0
0
0
0
0
61
0
0
0
0
0
0
0
0
0
0
0
0
61
0
0
0
0
0
0
0
0
0
0
0
0
0
0
60
0
0
0
0
0
0
0
0
0
0
0
0
0
0
0
0
0
0
0
0
49
0
0
0
0
0
62
0
0
0
0
0
0
0
0
0
0
0
0
57
0
0
0
0
0
0
0
0
0
0
0
61
0
0
0
0
51
0
0
0
0
0
42
0
0
0
0
63
0
0
0
0
0
61
0
0
60
0
0
0
61
0
60
0
0
0
0
0
0
0
0
58
0
0
60
0
0
0
0
0
0
0
58
0
58
0
0
0
0
0
0
0
0
0
0
0
0
62
0
0
0
0
0
0
0
0
0
0
0
0
0
0
59
0
62
0
61
0
0
0
0
0
0
0
0
0
60
0
0
0
0
0
0
0
0
0
62
0
58
0
0
0
0
0
0
57
0
0
0
0
0
0
0
60
0
0
0
56
0
0
0
0
0
0
0
0
57
0
0
0
0
0
0
0
0
0
0
0
0
0
0
0
0
0
0
0
0
0
0
0
0
0
0
0
0
51
0
0
0
0
0
0
0
0
0
0
0
0
0
0
0
0
0
0
0
60
0
0
0
0
0
62
0
0
0
0
0
0
0
0
0
49
0
0
0
0
62
0
0
0
0
0
0
0
0
0
0
0
0
0
0
60
0
0
0
0
0
57
0
0
0
52
0
0
0
0
0
0
0
0
0
61
0
0
0
0
0
0
0
62
0
0
0
0
0
0
0
0
0
0
0
0
61
0
0
0
53
0
60
0
0
0
0
0
0
0
0
60
54
0
0
0
0
0
58
0
0
0
0
0
0
60
0
0
0
0
53
0
61
0
0
0
0
0
0
0
62
0
0
0
0
0
0
0
0
0
0
0
0
0
0
58
0
0
0
0
0
0
0
0
0
3
61
0
25
14
11
0
7
0
0
0
0
0
0
0
0
0
0
0
0
63
0
61
0
0
0
0
0
0
0
0
61
0
58
0
0
0
0
0
0
0
0
0
55
0
0
0
0
0
0
0
0
0
0
59
0
0
60
0
0
0
0
0
0
0
0
0
0
0
61
0
0
0
0
0
0
0
0
61
0
0
0
0
0
0
0
0
0
0
0
0
0
0
0
0
0
0
0
0
0
0
60
0
0
0
0
0
0
0
60
0
61
0
0
0
0
0
0
0
0
0
63
0
61
0
0
4
22
15
15
45
14
15
13
13
19
16
25
0
0
0
0
51
0
0
0
0
0
0
0
0
0
0
0
60
0
0
0
0
0
0
0
0
0
0
0
0
0
0
0
0
0
0
0
0
0
0
57
0
0
0
0
0
0
0
0
0
0
59
0
0
0
0
0
0
59
0
0
0
0
0
0
0
0
0
0
0
0
0
0
0
53
0
0
0
0
0
60
0
0
0
61
0
0
0
0
0
0
0
0
0
0
0
0
0
0
0
0
0
0
0
0
62
0
0
0
0
0
0
0
0
2
0
68
17
5
10
0
0
0
0
0
2
26
22
53
3
60
0
7
0
0
0
63
0
61
0
0
0
0
0
0
0
0
0
0
0
0
0
0
56
0
0
54
0
61
0
0
0
0
0
0
0
0
0
0
0
0
0
0
0
0
0
50
0
0
0
0
0
61
0
59
0
0
0
0
0
0
0
60
0
62
0
0
0
0
0
0
0
0
0
62
0
0
0
0
0
0
0
0
0
58
0
0
0
0
0
0
0
0
0
0
58
0
0
0
0
0
61
0
0
0
0
0
0
63
0
0
0
5
3
25
21
58
0
0
0
63
0
0
0
63
12
37
10
11
3
53
0
0
0
0
0
0
0
62
0
0
0
63
0
58
0
0
0
56
0
0
0
0
0
0
0
0
0
0
0
0
0
0
0
0
0
0
0
0
54
0
0
0
0
0
0
60
0
0
0
0
0
0
0
0
62
0
0
0
0
0
0
0
0
57
0
0
0
59
0
0
0
0
0
0
0
0
0
0
0
0
0
0
0
46
0
62
0
0
60
0
0
0
0
0
0
0
56
0
0
0
0
0
0
60
0
0
0
0
0
0
35
18
26
0
0
0
0
0
0
0
6
19
22
13
9
10
11
13
0
0
56
0
0
0
0
0
0
0
0
0
0
0
0
0
0
0
0
0
55
0
0
0
61
0
0
0
0
0
0
0
0
0
0
0
59
0
0
0
58
0
0
0
0
0
0
60
0
0
60
0
0
0
0
0
0
0
0
0
0
0
0
0
0
0
0
0
0
0
0
0
0
0
63
0
0
0
0
0
0
0
0
0
0
0
0
0
0
0
0
0
0
0
0
0
0
0
0
0
0
0
0
0
0
0
0
62
0
5
68
13
22
0
58
0
61
0
0
0
0
12
12
13
27
70
20
66
22
0
0
0
0
0
0
0
0
0
61
0
0
0
0
0
0
60
0
0
0
0
0
0
0
0
0
0
0
0
62
0
61
0
0
0
0
0
53
0
0
0
0
0
0
0
0
0
0
0
0
0
0
0
0
0
58
0
58
0
54
59
0
0
0
0
0
0
0
0
51
0
0
0
0
0
61
0
0
0
0
0
0
0
0
57
0
46
0
0
0
0
0
0
0
62
0
0
0
63
0
0
45
0
0
0
0
0
0
0
0
8
59
3
0
0
0
0
0
0
0
13
1
4
30
23
26
19
8
0
0
0
58
0
0
57
0
0
0
0
0
0
0
0
0
0
0
0
0
0
62
0
0
0
0
0
60
0
0
0
0
0
59
0
0
0
0
0
0
0
0
0
0
0
0
0
0
0
60
0
0
0
60
0
0
0
0
0
0
0
0
62
0
0
0
0
60
0
0
0
0
0
0
0
0
0
0
0
61
0
0
0
0
0
0
0
0
60
0
57
0
0
0
0
0
0
0
0
0
0
0
0
0
59
0
0
0
30
17
23
37
0
0
0
0
0
0
0
58
5
9
3
13
9
4
17
16
6
0
0
0
0
0
0
0
0
0
0
0
0
0
0
0
0
0
0
0
0
0
0
0
0
49
0
0
0
0
0
0
0
0
0
0
0
0
0
0
0
0
0
47
0
0
0
0
0
0
0
0
0
0
0
60
0
0
0
0
0
0
0
0
0
0
0
0
0
0
57
0
0
0
0
0
0
0
0
0
0
0
0
0
57
0
51
0
0
0
0
0
0
0
0
0
0
0
0
0
0
0
56
0
0
0
0
0
66
6
13
32
0
0
63
0
0
0
0
0
17
7
7
16
59
17
23
25
60
0
0
0
0
0
0
0
0
0
0
0
0
0
56
0
0
0
0
0
0
0
0
0
0
0
0
0
0
0
0
0
0
0
0
0
0
0
0
61
0
0
0
0
0
0
60
0
0
0
0
0
0
0
0
0
0
56
0
61
0
0
0
0
0
0
0
58
0
0
0
0
0
0
0
0
49
0
0
0
0
0
0
0
0
0
0
0
0
50
0
0
0
0
61
0
0
0
0
0
0
0
0
0
60
0
0
0
10
30
35
13
60
0
6
0
0
0
0
0
8
57
0
3
24
19
31
22
18
14
10
51
0
0
0
57
0
0
0
61
0
0
0
0
0
0
0
61
0
0
58
0
0
0
0
0
59
0
0
0
0
0
0
61
0
57
0
0
0
57
0
57
0
0
0
0
0
61
0
0
59
0
0
0
0
0
0
0
0
56
0
0
0
0
0
0
0
0
0
0
59
0
0
0
0
0
0
0
0
0
0
0
0
0
0
0
0
0
0
0
0
0
0
0
0
0
0
61
0
0
0
0
0
0
24
6
0
2
5
0
24
32
19
43
26
70
30
43
4
4
10
3
22
58
9
56
9
2
15
3
1
5
0
0
0
0
0
0
0
0
0
62
0
0
0
0
0
0
0
0
0
44
0
0
0
0
0
0
57
0
0
0
0
0
0
0
0
0
0
0
0
0
51
0
0
0
0
0
0
0
0
0
0
61
0
0
0
0
0
0
61
0
0
0
0
0
53
0
0
0
61
0
0
0
0
0
0
62
0
0
0
0
0
0
0
58
0
0
56
0
0
0
0
0
0
0
0
0
0
60
0
0
0
14
0
0
62
0
60
12
5
31
32
24
25
24
0
3
13
3
21
25
11
47
0
20
0
2
49
0
0
0
24
0
61
0
0
0
0
0
0
60
0
0
0
0
0
0
0
0
0
0
0
0
0
0
0
0
0
55
0
0
0
0
0
0
0
0
0
0
0
0
0
0
0
0
62
0
0
0
0
0
0
61
0
0
0
0
0
0
0
0
0
0
0
0
0
0
0
0
0
0
0
0
0
0
0
0
0
0
61
0
0
0
0
0
0
0
0
0
0
0
0
0
0
0
0
0
0
60
0
33
60
0
0
5
35
9
18
17
58
32
24
5
1
21
28
11
2
32
61
15
28
0
47
0
23
2
13
21
56
0
0
7
61
0
0
0
0
0
0
0
0
0
0
0
0
0
0
0
0
0
60
0
0
0
0
0
0
0
0
0
0
60
0
61
0
0
62
0
0
0
0
0
0
0
61
0
0
0
0
0
0
0
0
0
0
0
0
61
0
59
0
0
0
0
0
0
0
60
0
0
0
0
0
0
0
0
0
0
0
0
51
0
0
60
0
60
0
0
0
0
0
0
0
0
0
0
12
12
0
0
10
24
26
29
20
11
11
12
7
4
0
0
23
3
14
32
13
27
1
5
1
54
3
4
19
17
15
17
13
10
14
0
0
0
0
57
0
0
0
60
0
0
0
61
0
0
0
0
0
0
0
0
62
0
0
61
0
0
0
0
0
0
0
0
0
0
0
61
0
0
0
0
0
0
0
0
60
0
0
0
0
61
0
0
0
0
0
0
0
0
0
0
0
0
0
0
0
0
60
0
0
0
0
62
0
0
60
0
0
0
0
8
0
0
0
0
49
0
0
62
0
0
20
31
20
40
28
28
32
12
64
18
33
10
14
13
2
53
0
0
0
60
0
16
20
27
22
28
10
22
6
55
8
45
8
60
4
59
0
62
0
9
0
0
0
0
0
0
0
57
0
0
0
61
0
0
0
0
0
0
0
0
0
0
0
0
0
0
60
0
0
0
0
60
0
0
0
0
56
0
0
57
0
0
0
0
0
59
0
0
0
0
58
0
0
0
0
0
0
61
0
0
59
0
0
0
0
0
0
0
0
0
0
0
0
0
0
0
51
12
3
15
14
2
2
19
0
2
11
3
23
16
50
11
7
24
24
27
13
34
49
2
54
0
0
0
6
0
2
11
0
3
11
20
16
4
22
28
17
20
39
13
0
10
24
16
3
0
7
0
0
0
61
0
0
0
0
0
0
0
0
0
0
0
0
0
0
0
0
0
56
0
0
0
62
0
0
0
0
0
0
0
0
60
0
0
0
0
0
0
0
0
0
0
0
0
0
0
0
0
0
0
0
0
0
0
0
0
0
0
0
0
0
0
59
0
0
0
0
0
0
0
0
0
0
0
0
21
16
14
8
56
1
7
20
12
7
12
14
32
18
15
14
19
17
2
17
18
33
18
8
0
0
0
0
10
52
12
16
18
4
23
58
23
34
2
9
36
13
29
62
8
5
27
58
0
3
8
0
0
0
0
0
0
0
49
0
0
0
61
0
53
0
0
0
0
0
0
0
0
0
0
0
0
59
0
60
0
0
0
0
0
0
0
0
0
0
0
0
0
60
0
0
0
0
0
0
0
0
0
0
0
0
0
0
0
0
0
0
59
0
0
0
0
0
61
0
0
0
0
60
0
0
0
42
55
26
40
13
14
5
11
14
13
8
58
25
6
20
23
6
12
37
10
3
19
24
27
56
0
0
0
0
10
14
4
12
32
3
27
44
13
60
2
23
28
19
21
4
12
28
3
34
5
11
28
0
0
0
0
0
50
0
0
0
62
0
0
0
0
0
0
0
0
0
0
50
0
0
60
0
0
0
0
0
0
0
58
0
0
0
0
57
0
62
0
0
0
0
0
51
0
56
0
0
0
0
0
0
0
0
0
0
0
0
58
0
0
0
0
0
57
0
0
0
0
0
0
0
0
63
5
10
24
2
15
0
0
0
0
48
0
0
5
4
3
3
7
15
8
75
8
2
2
18
11
17
0
0
50
2
4
17
25
0
2
58
13
4
4
19
9
3
53
17
23
1
65
20
4
12
7
4
65
17
0
0
0
0
0
0
0
0
0
0
58
0
0
0
0
61
0
0
0
0
0
0
0
0
0
0
0
0
0
0
0
0
0
56
0
0
0
0
0
0
0
0
0
0
0
0
0
59
0
58
0
58
0
0
0
0
62
0
0
0
0
0
49
0
0
0
0
0
0
0
0
0
0
0
50
5
15
6
12
0
0
0
0
0
0
0
0
4
4
56
13
18
20
9
0
0
0
0
13
29
13
13
9
8
64
21
26
0
12
1
12
54
2
9
44
15
8
6
11
9
27
16
0
51
1
26
8
7
56
0
0
0
0
0
0
62
0
0
0
0
0
0
0
0
0
0
0
0
0
0
0
0
0
60
0
0
49
0
0
0
0
0
0
0
60
0
0
0
0
62
0
0
0
0
0
0
0
0
0
0
0
0
0
0
0
0
0
0
0
0
0
0
0
0
0
0
61
0
0
61
14
14
18
0
10
19
8
0
0
0
0
0
0
0
0
0
2
1
4
29
29
20
64
0
0
16
16
61
3
34
7
3
3
23
6
0
58
4
0
4
0
0
2
2
19
15
19
23
22
21
31
12
12
34
9
8
12
0
51
0
0
0
0
0
0
0
0
0
0
0
0
60
0
0
59
0
0
0
62
0
0
0
0
0
0
0
0
0
0
0
59
0
0
0
0
52
0
0
0
0
60
0
0
0
0
0
0
0
0
0
0
0
0
0
0
0
0
0
0
0
0
46
0
0
0
0
0
19
31
17
48
0
0
0
7
0
0
0
0
0
0
60
0
5
1
7
7
65
44
4
20
0
12
2
20
20
9
24
8
32
60
27
0
4
1
7
1
50
7
52
16
21
61
7
56
30
47
21
2
10
53
6
24
33
0
0
0
0
0
0
0
0
0
61
0
0
0
0
0
0
0
0
0
0
0
0
0
0
0
0
0
0
62
0
0
0
0
0
0
0
0
59
0
0
0
0
49
0
0
0
0
0
0
0
0
0
58
0
0
0
0
0
0
51
0
0
0
0
0
0
0
3
0
0
8
38
15
4
9
0
60
0
0
0
0
0
61
0
0
0
0
10
54
0
27
8
20
65
60
20
13
7
36
24
0
52
4
37
19
0
0
43
10
20
11
7
21
12
27
20
16
6
8
25
23
0
0
0
0
0
58
0
0
57
0
0
59
0
0
0
0
0
0
0
0
0
0
0
0
0
51
0
0
0
0
0
0
0
0
0
0
0
0
62
0
0
0
57
0
0
0
0
0
0
0
64
0
0
62
0
0
0
0
0
0
0
0
0
0
0
0
0
0
0
0
0
0
0
0
0
62
21
16
40
14
12
3
0
0
0
6
0
0
0
0
0
55
0
0
7
9
1
7
13
26
26
6
13
5
22
10
2
0
0
2
28
7
0
1
0
29
50
45
14
55
7
56
13
8
56
14
27
38
0
0
0
45
0
0
0
0
0
0
0
0
0
0
60
0
0
0
0
0
0
0
0
0
0
0
0
0
60
0
0
0
0
59
0
58
0
0
0
0
0
0
0
0
0
0
0
0
0
56
0
0
0
0
0
0
0
62
0
61
0
0
0
0
0
0
0
0
0
60
0
0
62
0
6
38
21
27
21
14
64
10
59
0
0
3
0
0
0
0
0
0
0
0
18
15
9
4
5
11
8
26
66
7
57
32
60
0
7
22
23
32
1
25
0
12
35
22
33
51
18
29
27
13
38
31
22
18
56
0
0
0
0
0
0
0
0
0
0
0
0
0
0
0
0
0
60
0
61
0
0
0
0
0
0
0
0
0
0
45
0
0
0
0
0
0
0
0
53
0
0
60
0
0
0
0
0
0
0
0
0
0
0
0
0
0
0
0
0
0
0
60
0
0
0
0
0
0
0
0
0
7
17
29
8
14
19
53
0
20
0
0
0
0
0
61
0
0
0
0
0
0
9
3
33
19
34
19
14
19
26
30
23
24
11
13
11
29
13
65
26
59
3
14
17
9
5
3
11
6
18
23
37
61
25
32
27
0
0
60
0
0
0
0
0
0
0
0
0
60
0
0
50
0
0
0
0
0
0
0
0
0
0
0
0
61
0
0
0
53
0
0
0
0
61
0
0
0
0
0
0
0
0
0
0
0
57
0
0
0
0
54
0
0
0
0
0
0
0
0
0
44
0
0
0
0
9
0
68
11
0
60
0
0
0
3
8
51
0
53
13
10
0
0
0
0
0
61
0
0
9
16
28
81
31
39
67
22
16
12
5
3
26
24
24
53
24
39
5
19
0
32
31
9
15
12
17
0
2
13
18
5
18
61
5
0
0
0
0
0
0
0
0
0
0
61
0
0
0
0
0
0
0
0
0
0
0
0
0
0
0
62
0
0
0
0
0
0
0
61
0
0
0
0
0
0
52
0
0
0
0
0
0
59
0
0
0
0
0
0
0
0
0
0
0
0
0
60
0
0
0
58
0
0
3
0
37
22
0
4
0
0
0
0
0
3
0
0
0
0
0
0
0
0
0
0
0
0
9
37
17
8
23
20
55
26
23
54
17
52
22
28
4
15
24
46
16
41
17
25
60
24
55
0
5
0
0
61
20
51
23
25
0
0
49
0
58
0
60
0
0
0
0
0
0
0
0
0
0
59
0
0
0
61
0
0
51
0
0
0
0
0
0
52
0
0
0
0
0
0
0
0
0
0
0
0
0
0
0
0
0
0
0
61
0
0
0
50
0
0
0
0
50
0
0
0
0
0
0
0
0
55
0
6
24
15
11
1
0
3
0
0
62
0
5
62
6
0
58
0
63
0
0
0
0
0
11
9
57
9
29
14
43
1
0
15
41
3
20
58
22
25
51
18
67
17
26
15
19
18
0
10
0
0
21
7
4
8
23
40
0
0
0
0
0
0
0
0
0
0
0
0
0
0
0
60
0
0
0
0
0
0
0
0
0
0
0
0
0
61
0
0
0
0
0
60
0
0
0
0
0
0
0
0
61
0
0
0
0
51
0
0
0
0
0
0
0
0
0
0
0
0
0
0
58
0
0
0
0
22
36
38
28
29
0
0
0
53
0
6
0
0
0
0
0
0
0
0
0
0
0
0
0
0
53
12
15
10
25
8
31
33
2
7
19
17
3
9
18
20
26
21
11
9
0
4
50
20
51
13
13
0
14
57
10
4
17
56
0
0
0
0
0
0
0
0
0
0
0
0
0
0
0
0
0
51
0
0
0
0
0
0
0
0
0
0
0
0
0
0
0
0
0
0
0
0
58
0
0
0
0
0
0
0
63
0
0
0
0
0
0
0
0
0
0
61
0
0
0
58
0
0
0
0
0
0
0
16
0
58
0
13
53
0
0
6
0
0
0
0
0
60
0
0
0
0
0
0
0
58
0
0
1
8
50
1
0
0
0
34
24
46
16
18
31
30
33
56
9
10
22
99
0
0
24
10
0
6
0
15
38
19
6
39
37
24
0
0
0
0
60
0
0
0
59
0
0
0
58
0
0
0
0
0
0
56
0
0
0
49
0
0
0
0
0
0
51
0
0
0
0
0
0
0
0
0
0
0
0
62
0
0
0
0
0
52
0
59
0
0
0
0
0
0
0
0
0
0
0
0
0
0
0
9
18
26
0
0
0
0
7
0
19
0
0
0
5
61
0
0
5
0
61
0
0
0
0
0
0
0
60
0
2
0
0
60
0
0
9
22
4
17
45
15
22
9
11
58
44
10
11
5
3
8
8
0
63
34
19
26
25
61
31
56
0
0
60
0
0
0
0
0
0
0
0
0
0
0
0
0
0
0
0
0
0
0
0
0
0
54
0
62
0
0
0
0
0
0
0
0
0
0
0
0
0
0
0
0
0
0
0
60
0
0
0
0
0
62
0
61
0
0
0
0
63
0
0
0
62
0
0
11
10
64
0
0
0
0
3
8
28
6
0
0
0
0
0
0
0
0
0
0
49
0
0
0
0
0
0
0
0
0
0
0
0
61
8
40
11
36
11
17
15
26
29
15
20
21
9
65
12
21
11
3
4
12
9
61
14
21
0
0
0
4
0
0
0
0
0
0
0
61
0
57
0
61
0
0
0
61
0
0
0
0
0
0
0
0
0
0
0
0
0
0
0
51
0
0
59
0
57
0
50
0
0
0
0
0
0
0
0
60
0
51
0
0
0
0
0
0
0
0
0
0
60
0
0
0
30
14
7
12
0
7
50
0
7
2
4
58
0
3
0
0
58
0
0
0
0
0
0
0
0
0
0
60
0
1
0
0
0
0
0
0
7
2
24
65
18
17
22
49
14
4
6
58
17
16
15
10
20
17
6
22
27
23
29
58
15
6
56
0
0
0
0
48
0
0
0
0
0
0
0
0
0
51
0
0
0
0
0
0
0
0
0
61
0
0
0
0
0
0
0
0
0
0
0
0
0
0
0
0
61
0
57
0
0
0
0
0
0
0
0
0
0
61
0
0
0
62
0
0
0
0
0
61
11
22
46
34
13
0
4
0
0
62
0
0
0
52
2
2
0
3
0
0
0
0
0
0
6
3
0
5
0
0
1
0
62
15
22
33
11
36
10
13
0
0
1
0
4
52
8
17
25
34
37
46
24
62
27
24
30
8
31
8
0
0
0
0
0
60
0
0
0
0
0
0
0
0
0
0
0
0
0
0
0
0
46
0
0
0
0
0
0
0
0
0
62
0
0
0
0
0
0
0
0
0
0
0
0
0
0
0
0
0
0
0
61
0
0
0
0
0
0
0
0
0
0
61
0
0
0
0
32
30
26
15
0
61
0
0
3
1
4
0
18
0
0
9
63
2
57
0
0
0
0
0
52
4
7
0
1
0
59
0
25
49
7
1
32
13
3
9
0
0
60
0
15
14
16
17
40
32
60
10
6
12
4
31
22
23
56
29
0
0
0
0
0
0
0
0
0
0
0
0
0
61
0
60
0
0
0
0
0
0
0
3
56
0
0
0
0
0
51
0
0
0
0
47
0
0
0
0
0
0
0
0
0
0
0
0
0
0
0
0
0
0
0
0
0
0
0
0
47
0
0
0
0
0
0
0
25
27
37
37
0
13
14
0
2
0
0
63
0
12
6
0
0
0
8
0
0
0
0
0
1
16
12
0
11
0
0
0
11
7
34
31
18
42
49
19
0
0
0
0
17
23
13
15
68
4
23
13
18
0
12
7
15
29
11
32
16
0
0
0
44
0
60
0
62
0
0
1
0
0
0
0
0
0
0
0
0
57
0
2
0
0
4
0
62
0
0
0
0
61
0
0
0
61
0
0
61
0
0
63
0
0
0
0
0
0
61
0
0
61
0
63
0
0
0
0
0
0
0
0
0
0
0
0
25
85
2
8
0
61
0
0
0
58
0
0
0
56
0
6
61
4
1
0
0
61
0
0
6
9
9
58
1
0
30
30
40
22
15
31
18
4
8
7
0
0
0
59
17
41
4
18
15
12
62
27
4
17
4
62
22
15
43
50
30
0
0
0
0
0
0
0
0
0
0
0
0
0
0
54
0
0
62
0
14
9
2
17
3
5
0
0
0
0
0
62
0
0
0
0
0
0
0
0
0
0
0
0
0
0
0
59
0
0
0
0
0
0
0
0
0
0
0
59
0
62
0
0
0
0
0
0
0
0
8
46
41
37
20
23
0
0
0
0
0
0
0
0
7
18
49
0
0
0
0
0
7
50
6
5
34
27
11
36
38
34
24
65
32
5
0
0
5
5
0
4
15
19
20
8
34
26
23
27
54
24
24
34
19
18
4
25
31
0
0
0
0
0
0
0
0
0
0
0
0
0
0
0
0
0
0
0
6
1
1
9
55
0
0
0
0
0
0
0
0
0
0
0
0
0
0
0
53
0
0
60
0
0
0
0
0
0
0
0
62
0
0
57
0
0
0
0
0
0
0
0
0
60
0
0
59
0
55
33
22
22
5
2
0
0
0
0
56
0
0
0
56
14
7
2
0
0
0
0
4
7
16
16
35
30
52
8
14
15
24
30
9
0
0
0
60
0
0
60
10
1
84
15
67
29
69
33
19
18
66
14
72
68
27
29
49
0
0
0
0
0
0
0
62
0
0
61
0
0
0
0
0
0
0
0
0
60
0
0
0
0
0
0
58
0
0
0
0
0
0
0
0
0
0
0
0
0
0
0
0
0
0
0
0
0
0
0
0
0
0
0
0
0
0
0
0
0
0
0
0
0
0
0
0
0
0
1
4
14
35
22
61
0
0
0
0
0
0
9
10
8
56
17
0
0
0
60
12
4
9
18
8
4
18
52
16
31
31
38
1
1
2
0
0
1
0
0
12
21
11
20
56
11
29
2
20
22
44
39
33
17
21
0
0
0
0
0
62
0
0
0
0
0
0
0
0
0
60
0
0
0
0
58
1
0
0
0
0
0
61
0
0
0
0
0
59
0
0
56
0
58
0
0
0
0
0
0
0
0
0
0
0
0
0
0
0
0
60
0
0
56
0
0
58
0
0
0
62
0
0
0
7
56
11
56
8
3
58
21
0
0
57
0
63
0
0
0
18
34
20
17
0
0
0
0
0
64
1
22
7
61
37
31
59
12
18
24
0
0
0
0
0
0
1
58
3
16
3
11
20
12
25
43
27
32
69
9
25
30
12
0
0
61
3
0
0
0
0
0
0
0
0
61
0
0
0
0
0
0
0
0
0
0
0
48
0
0
0
0
0
51
0
0
0
0
0
0
0
0
0
62
0
0
0
0
0
0
61
0
58
0
0
0
0
0
0
0
0
0
0
0
0
0
0
0
0
0
0
56
0
0
0
0
0
14
19
3
0
0
0
0
0
0
0
0
0
13
14
3
60
0
0
0
0
39
5
15
0
5
16
20
1
12
1
10
0
0
0
0
0
0
0
4
16
55
25
23
8
16
36
29
8
21
21
22
26
33
18
0
0
0
0
0
62
0
0
0
0
0
0
0
0
58
0
0
0
46
0
0
0
0
0
0
0
0
61
0
0
0
0
0
0
0
0
0
0
0
0
0
0
0
59
0
0
0
0
0
0
0
0
0
0
0
0
0
0
0
0
0
0
0
0
0
0
0
0
0
0
0
51
0
13
0
0
23
0
0
0
0
63
0
0
57
3
0
54
0
5
0
0
0
1
0
0
5
3
5
4
0
30
15
4
5
57
0
0
0
63
0
7
0
11
4
8
17
47
28
75
9
31
56
37
20
29
50
29
0
0
0
0
0
0
0
61
0
0
0
0
59
0
0
0
0
0
0
0
0
0
50
0
0
0
0
0
0
0
63
0
0
0
60
0
52
0
61
0
0
0
0
0
0
50
0
0
0
0
60
0
0
56
0
0
52
0
0
0
0
62
0
0
0
0
62
0
0
0
0
0
0
0
0
0
33
0
0
0
0
0
0
0
0
6
9
17
0
0
0
0
0
0
5
2
1
5
0
63
9
17
23
2
3
0
0
0
0
0
0
62
0
24
2
34
30
39
22
11
31
15
22
15
2
9
26
31
10
0
61
0
0
0
0
0
0
63
0
0
0
0
53
0
0
0
0
0
3
0
0
0
0
61
0
0
0
0
0
0
0
0
0
0
0
0
0
0
0
0
0
0
0
0
0
0
0
0
0
0
54
0
0
0
0
0
0
0
0
0
0
0
0
0
0
0
0
0
0
58
0
50
0
0
22
62
0
0
0
0
0
61
0
1
7
3
0
0
0
0
0
57
11
2
11
9
5
2
22
20
58
9
8
0
60
0
0
62
0
0
3
17
7
19
3
37
54
7
6
2
50
36
7
34
40
27
10
0
0
0
60
0
0
0
0
0
0
61
0
0
0
0
0
61
0
0
0
0
58
0
0
0
0
58
0
0
0
0
55
0
0
0
0
0
0
0
0
0
0
0
61
0
0
0
58
0
42
0
0
60
0
0
0
0
0
0
0
0
0
61
0
0
0
0
0
0
0
0
0
0
0
8
8
0
0
0
0
52
0
0
0
49
0
0
0
59
0
6
7
10
8
20
15
3
0
5
24
25
35
10
12
0
0
0
0
28
27
32
26
23
15
34
76
23
0
0
0
6
35
2
58
26
16
43
15
1
8
0
0
0
60
0
0
62
0
0
0
0
0
0
0
0
0
0
0
0
0
0
60
0
0
0
0
0
51
0
0
0
0
0
0
0
0
0
0
0
57
0
0
0
0
0
0
0
0
0
0
0
0
0
61
0
0
0
58
0
0
0
0
0
0
0
0
0
54
0
0
0
0
58
14
0
0
0
0
0
0
0
0
0
7
0
0
0
0
1
2
8
20
8
12
9
3
56
20
21
25
16
52
10
0
0
57
35
65
16
13
63
7
8
43
3
10
4
12
0
1
0
0
11
20
43
45
16
5
0
0
0
0
0
0
0
0
54
0
51
0
0
0
0
0
0
0
60
0
0
0
0
0
0
0
0
0
0
0
0
57
0
57
0
0
58
0
0
0
0
0
0
0
0
0
0
0
0
59
0
0
0
0
0
0
0
0
0
0
0
0
0
56
0
0
0
0
0
0
1
58
0
28
60
0
0
0
0
0
0
6
0
0
0
0
0
62
1
12
24
31
58
30
10
13
18
21
14
55
9
15
0
0
0
0
15
8
2
35
33
14
18
7
16
0
12
0
19
61
0
0
59
25
27
14
11
0
0
0
0
0
0
0
0
0
0
0
0
0
0
0
0
0
61
3
0
0
0
0
0
0
0
0
0
0
58
0
0
0
0
0
0
0
0
0
0
0
0
0
0
0
0
55
0
0
0
0
0
60
0
0
0
0
0
0
0
0
0
0
0
0
0
0
0
0
0
0
0
0
14
15
0
0
0
1
53
1
0
27
0
55
0
63
0
0
9
7
30
9
20
6
24
13
68
16
18
23
6
15
0
13
0
62
2
54
0
23
28
36
32
55
11
11
0
0
12
0
0
0
0
0
65
33
12
22
23
0
0
0
60
0
0
0
0
0
0
0
0
0
44
0
0
0
0
0
0
0
0
0
0
0
0
0
0
0
0
0
57
7
1
0
11
1
0
0
0
60
0
0
0
0
0
0
0
61
0
0
0
0
59
0
0
0
61
0
0
0
0
0
0
0
0
0
61
0
0
12
16
18
1
0
0
19
0
0
0
1
0
0
0
0
7
1
0
0
8
6
57
2
27
49
4
14
21
20
10
15
59
20
28
17
0
0
0
58
20
28
97
21
18
15
0
0
2
62
0
0
0
12
29
31
14
54
32
5
0
0
0
0
0
58
0
60
0
0
64
0
0
0
0
0
0
0
0
0
54
0
0
51
0
0
59
0
0
0
0
0
63
0
61
0
0
0
0
0
0
0
0
0
61
0
0
0
58
0
0
0
0
0
61
0
0
0
0
0
0
51
0
60
0
0
0
0
0
51
33
25
13
0
2
0
0
0
0
11
0
0
61
0
0
61
0
0
5
0
0
3
3
9
14
59
0
13
4
2
11
5
11
55
0
0
0
0
28
30
10
23
0
11
11
0
0
0
0
0
0
0
62
14
17
25
15
0
0
0
0
0
0
1
0
0
0
0
0
0
0
0
0
0
0
60
0
0
0
0
0
0
0
0
0
0
61
0
0
0
0
0
0
0
63
0
0
0
0
0
59
0
0
0
0
0
0
0
0
0
0
0
0
0
0
0
0
0
0
0
0
0
0
0
0
37
0
33
10
33
0
0
0
0
0
0
0
11
0
0
0
0
0
2
0
61
0
0
0
0
3
3
3
11
0
5
8
0
16
26
12
6
0
0
0
0
28
3
9
86
16
1
0
63
0
0
0
0
12
6
12
22
25
53
34
50
0
0
0
52
0
0
0
0
0
0
58
0
0
0
4
62
5
0
0
0
0
0
0
0
0
0
0
0
0
0
61
0
0
0
62
0
0
0
0
0
0
0
0
0
0
61
0
0
0
0
0
0
0
0
58
0
0
0
61
0
0
0
0
0
0
0
0
0
70
34
19
21
8
3
0
0
0
0
0
60
0
0
0
0
0
0
0
0
0
0
0
59
2
5
52
20
61
0
8
0
29
23
20
0
0
0
0
0
21
28
28
13
0
20
0
0
3
0
0
0
0
53
23
23
41
4
25
7
0
58
0
0
0
0
0
0
62
0
0
0
59
0
0
0
0
5
0
61
0
0
54
0
0
0
0
0
0
0
0
0
61
0
0
0
0
0
61
0
0
0
0
0
0
0
0
55
56
0
0
59
0
0
0
0
0
0
0
0
61
0
0
62
0
0
1
7
29
3
60
22
60
0
0
0
0
0
0
0
0
59
0
0
5
55
0
0
1
0
0
0
0
11
0
0
0
0
0
19
65
23
12
0
0
0
0
29
24
62
16
22
21
1
43
0
0
0
60
0
7
3
3
0
18
61
35
55
5
14
0
3
0
61
6
0
0
2
0
0
0
0
0
0
0
0
0
0
0
0
0
0
0
0
0
0
0
0
55
0
0
0
0
0
59
0
0
0
0
0
57
0
0
0
0
0
0
0
0
0
0
0
59
0
0
0
0
0
0
0
0
0
0
0
0
19
25
11
9
13
0
0
0
0
0
63
0
0
0
0
0
9
6
5
0
62
0
0
0
0
0
0
0
0
0
0
0
0
26
46
0
1
62
0
0
24
31
17
67
10
0
23
0
3
0
0
0
0
11
11
7
0
16
27
15
22
9
0
0
0
0
0
0
0
0
0
0
59
0
56
0
0
0
0
0
0
0
0
0
0
0
0
0
0
0
0
0
0
0
0
0
0
0
0
0
0
0
0
0
0
0
59
0
0
0
54
0
0
0
0
0
0
0
0
0
0
0
0
0
0
62
0
10
33
8
13
31
10
0
51
0
3
0
0
0
0
0
0
6
61
8
13
12
5
0
0
0
60
0
54
0
0
51
0
48
0
21
39
50
0
0
0
4
26
13
32
33
28
0
12
57
0
0
0
0
0
2
6
11
1
0
8
15
25
14
18
4
52
0
0
0
0
0
0
0
0
0
0
0
0
2
0
0
0
0
0
0
0
0
0
0
0
0
0
59
0
0
60
0
0
0
0
57
0
0
0
0
0
0
0
0
0
0
0
0
6
0
0
0
0
0
0
0
61
0
0
0
0
0
0
27
66
2
2
2
5
0
0
0
0
57
0
0
0
0
1
0
0
12
19
61
13
57
0
7
0
0
0
0
0
0
0
0
0
15
3
9
0
0
61
4
18
8
34
47
0
0
0
0
0
64
19
0
57
10
1
53
0
1
23
70
32
56
5
10
13
0
0
1
0
0
59
0
52
0
0
0
3
0
0
0
59
0
0
62
0
55
0
0
0
45
0
0
0
0
0
0
0
0
0
0
0
0
0
62
0
0
0
0
0
3
6
0
0
0
0
0
0
48
0
0
0
5
3
0
0
0
0
30
24
0
44
0
0
0
0
0
0
2
1
51
0
0
60
0
0
57
0
5
0
18
4
0
1
0
61
0
60
9
0
0
62
10
0
0
0
0
0
17
29
57
29
10
7
0
0
0
0
0
11
6
0
8
8
0
0
10
12
17
18
7
10
0
0
0
0
0
63
0
14
0
1
0
58
0
59
0
6
0
0
0
0
0
0
0
0
0
2
0
0
0
0
0
0
0
0
0
0
0
0
0
0
0
0
0
0
61
0
60
2
0
62
6
5
11
6
2
0
1
0
14
9
25
6
0
18
20
28
0
0
0
0
60
0
0
0
0
10
0
0
5
7
15
0
15
0
0
4
8
12
3
3
0
0
0
0
0
58
0
0
28
0
0
0
0
0
63
33
30
13
37
0
15
55
4
49
0
0
0
0
0
62
0
0
8
64
26
28
54
19
0
0
50
0
0
0
12
0
62
0
0
4
0
12
11
57
0
0
0
61
0
0
0
0
0
0
0
59
0
62
0
0
0
1
14
0
52
0
49
0
0
60
0
0
0
0
19
10
2
22
15
3
27
60
2
0
61
1
23
55
25
0
61
16
23
59
0
0
0
0
0
0
0
0
62
0
0
1
49
0
0
6
0
0
0
11
18
11
2
0
0
55
0
1
0
0
0
59
5
0
0
60
0
0
9
24
18
38
22
0
0
22
0
0
1
11
0
2
0
0
1
17
0
20
3
10
35
19
4
0
8
0
59
0
0
0
4
0
9
5
8
3
4
3
8
60
0
7
0
0
0
0
0
0
0
0
0
0
0
0
57
0
0
5
20
0
0
0
0
0
0
62
0
7
16
4
1
21
0
3
10
8
0
0
11
13
8
0
4
3
9
8
31
19
0
0
0
58
0
62
0
0
0
5
0
0
0
0
2
0
61
0
55
6
53
4
59
10
10
0
13
0
0
0
0
0
2
0
0
4
0
24
36
55
15
6
4
63
10
11
0
0
3
1
19
0
51
1
4
12
11
15
13
28
25
27
56
17
54
3
26
28
25
23
15
18
1
0
7
6
3
5
0
5
0
0
0
0
60
0
0
0
0
0
0
0
0
0
0
0
10
16
0
5
16
2
10
30
0
3
3
15
1
63
0
0
0
0
5
0
57
0
0
0
0
5
0
14
64
4
6
4
61
0
0
0
0
0
0
0
0
61
0
0
61
0
0
0
0
0
0
0
0
5
0
0
0
0
0
62
34
58
32
9
31
0
32
0
0
14
30
31
20
38
8
16
5
54
14
0
10
59
5
20
6
8
56
1
52
6
32
64
19
10
18
18
30
8
21
7
10
11
14
19
3
5
5
3
65
2
9
1
0
0
0
0
0
0
0
0
0
0
0
61
0
60
0
0
9
0
62
0
11
53
7
28
25
0
0
0
0
7
0
0
21
0
0
0
0
0
4
0
0
0
62
0
4
4
7
1
0
0
61
0
0
0
0
0
0
0
0
0
0
0
0
0
0
0
0
0
0
0
0
0
0
0
0
0
9
24
15
37
24
3
2
12
4
25
38
16
70
34
43
7
3
12
0
9
11
14
3
26
9
3
1
0
5
0
0
15
22
22
9
23
0
8
0
8
13
62
0
3
25
20
9
2
0
5
2
23
0
20
6
0
0
0
0
0
0
0
0
0
0
0
0
2
0
0
0
2
6
7
8
13
1
3
2
60
54
1
0
3
0
6
0
3
0
0
0
55
0
0
15
7
17
4
7
61
0
0
0
0
0
0
48
0
0
0
0
0
60
0
59
0
0
0
0
5
0
0
61
0
0
0
56
0
49
20
55
3
2
6
12
24
15
23
58
29
17
23
61
7
63
15
1
57
9
18
26
4
3
52
9
3
2
4
50
8
24
25
21
93
19
3
4
10
0
7
8
30
62
53
62
31
6
2
0
0
8
35
19
7
26
0
63
0
0
60
0
0
56
8
52
0
59
0
3
0
50
0
60
7
0
13
0
7
1
0
0
23
0
14
5
5
1
3
2
0
3
1
0
15
34
1
9
0
4
0
0
62
0
0
0
0
0
61
0
0
0
0
0
0
0
2
0
0
0
0
0
0
0
0
0
0
26
24
19
24
2
3
15
57
5
9
14
30
10
22
22
10
11
11
7
4
20
22
4
17
17
9
1
58
0
0
6
0
51
22
18
29
11
0
17
5
8
19
2
0
15
18
13
10
9
13
62
0
60
0
35
0
59
17
0
0
0
0
1
12
5
3
10
4
0
0
0
10
12
7
0
0
1
0
64
8
3
1
11
6
56
0
1
5
5
14
0
0
56
0
0
73
0
13
0
3
0
0
0
0
0
0
0
0
0
0
0
59
0
0
0
0
56
0
2
0
0
0
0
0
0
0
0
58
12
20
31
0
0
11
1
17
15
67
42
99
17
3
12
13
15
21
0
62
8
23
6
19
58
11
4
11
11
9
55
15
22
20
35
27
53
10
12
1
4
0
1
58
9
43
11
61
34
6
9
12
5
0
0
0
26
13
12
20
0
5
14
2
57
81
21
0
0
4
60
12
8
61
0
54
0
4
3
14
3
4
50
3
0
0
0
0
0
0
61
0
0
0
14
10
30
1
0
0
0
60
0
0
0
0
0
0
0
0
0
0
0
0
0
0
0
0
0
6
0
49
0
0
0
0
0
0
9
25
10
0
0
8
0
15
11
23
16
31
34
3
61
0
34
19
16
28
20
9
12
18
16
6
31
13
0
7
16
25
61
19
51
24
13
14
64
10
66
14
10
2
7
27
7
40
17
13
0
13
13
2
4
0
18
10
20
13
12
55
13
8
6
23
41
35
0
4
1
24
0
6
12
12
0
3
4
61
1
4
0
12
3
54
0
0
5
0
0
0
0
32
73
24
0
7
60
2
0
0
0
0
0
0
0
60
0
0
0
0
58
0
0
62
0
7
0
44
0
0
0
0
61
0
0
0
32
10
57
0
17
0
8
0
28
21
17
15
13
3
4
29
17
17
20
3
3
44
4
3
3
13
27
11
4
56
13
12
7
0
9
10
46
8
3
15
0
13
10
1
61
16
0
15
12
56
4
0
65
3
6
0
0
2
57
0
10
10
14
0
0
0
4
5
0
1
1
7
57
0
63
11
3
13
22
24
3
5
4
0
0
0
5
0
0
3
1
0
2
0
31
31
2
1
0
0
0
0
0
0
60
0
0
0
0
0
0
0
0
0
0
0
0
0
3
0
0
60
0
0
0
0
0
0
44
18
4
22
6
4
64
3
9
13
29
56
99
4
16
21
38
7
57
3
22
10
9
3
3
0
15
17
18
3
0
13
1
1
22
4
25
21
49
0
12
11
50
0
5
0
0
8
4
6
0
0
1
0
0
0
60
0
0
10
0
11
0
3
14
1
61
11
0
0
9
4
0
0
11
0
62
0
0
53
65
10
3
1
62
0
0
0
0
6
0
7
9
62
12
8
64
0
4
0
0
59
0
0
0
0
0
0
0
7
0
0
0
0
0
0
0
0
1
62
0
0
0
0
0
0
54
0
28
3
2
5
5
0
4
0
19
52
14
10
23
1
61
9
0
20
3
0
0
0
61
0
10
6
24
3
5
4
10
15
0
60
0
67
25
46
16
0
0
0
0
0
0
0
0
0
0
0
0
0
0
12
0
0
0
0
0
0
62
0
0
0
0
0
0
12
0
0
4
0
0
0
0
0
0
0
0
5
7
0
15
13
2
0
0
0
0
0
0
0
0
11
7
3
0
0
0
56
0
0
0
0
0
0
0
0
0
0
0
0
0
62
0
0
0
4
0
0
0
0
0
62
0
0
0
0
55
4
61
0
60
0
0
6
67
40
23
56
34
23
25
23
2
26
0
0
3
0
0
0
0
7
57
6
57
5
1
61
2
0
4
16
2
36
25
0
0
0
0
0
0
1
0
48
0
0
0
60
0
0
0
60
0
0
0
0
0
0
0
0
52
0
10
0
0
1
0
0
62
0
0
61
0
59
0
0
48
0
0
0
0
0
56
0
63
0
63
0
0
66
26
11
0
0
0
0
0
0
61
0
0
0
0
0
0
0
0
0
0
0
0
0
0
0
59
0
0
0
0
0
0
0
0
0
17
0
0
0
0
0
0
23
12
29
25
15
14
18
45
11
13
25
11
11
0
1
62
0
5
0
4
0
2
12
6
9
0
0
0
57
12
19
26
4
0
57
0
0
0
0
0
0
0
0
0
0
0
0
0
0
0
0
60
0
0
0
51
0
0
0
0
0
50
0
0
0
0
0
0
0
0
0
0
0
0
0
60
0
0
0
0
0
0
0
0
0
27
29
35
21
0
0
0
0
0
0
0
0
0
0
0
0
61
0
0
0
55
0
0
0
0
2
0
6
0
0
0
0
0
0
0
60
10
0
0
0
49
0
10
29
4
8
10
4
22
31
24
6
0
4
0
0
0
0
0
0
0
0
9
54
11
7
3
10
0
18
0
0
22
36
39
85
0
0
0
0
0
51
0
0
0
0
0
0
61
0
0
0
0
0
0
0
0
0
0
0
62
0
0
0
6
0
0
0
61
0
23
0
6
0
9
0
0
0
0
0
0
0
0
0
0
0
0
0
9
29
9
22
0
52
0
0
61
0
0
0
0
0
0
0
0
0
0
0
0
0
0
0
0
0
0
0
62
0
0
0
59
13
29
16
14
0
0
0
0
0
0
7
28
5
20
34
31
15
9
56
0
0
22
56
2
0
0
0
0
61
0
0
4
58
26
9
9
0
4
16
8
6
14
15
24
0
0
0
0
0
0
61
0
0
0
0
0
0
62
0
0
0
0
0
0
0
0
0
0
0
0
0
62
0
0
0
0
0
0
0
0
0
58
0
0
0
60
0
0
0
0
0
1
0
0
0
75
26
54
14
0
0
0
0
0
0
44
0
0
0
50
0
0
0
0
60
0
0
61
0
0
0
0
3
0
0
0
0
6
8
8
36
58
0
0
0
0
0
4
16
37
75
13
25
45
57
0
0
0
70
0
0
0
0
0
0
5
0
0
0
10
3
16
2
5
12
29
57
0
30
0
14
56
10
0
0
52
0
0
0
1
3
0
1
52
0
3
2
60
0
54
0
0
0
0
0
0
0
59
0
0
0
0
56
0
0
0
5
54
0
0
7
62
0
0
0
0
0
50
0
57
0
0
1
22
16
6
22
0
0
0
0
0
0
0
0
56
0
0
0
61
0
0
0
0
0
0
0
0
62
0
0
0
0
61
0
7
11
8
14
0
0
0
6
8
0
61
9
23
99
33
23
35
15
0
0
0
0
0
0
0
0
0
0
0
62
0
0
10
0
60
1
55
4
0
5
0
19
26
5
6
0
0
0
0
0
11
0
54
0
5
2
3
14
0
2
0
0
0
0
0
0
0
0
0
0
0
0
60
0
0
0
0
0
0
0
0
0
61
0
0
0
0
0
58
0
0
0
0
0
0
10
26
26
8
25
0
15
0
0
0
0
0
0
0
0
0
0
0
0
0
0
61
0
0
0
0
0
7
0
0
0
0
0
0
52
21
0
0
62
0
0
10
6
2
7
37
37
38
33
22
3
0
55
0
4
0
0
0
11
0
0
0
0
0
61
0
1
0
0
4
4
13
3
0
61
29
49
22
12
52
0
0
0
0
0
0
0
0
0
0
0
0
0
0
0
0
0
0
0
0
60
0
0
60
0
0
0
0
0
0
0
0
62
0
1
0
0
0
0
0
0
0
0
0
0
0
0
0
0
53
4
38
17
3
59
8
30
51
0
0
0
0
60
0
0
0
0
0
0
0
0
0
0
0
2
19
0
0
0
0
0
7
18
14
0
0
0
4
0
0
18
71
22
18
12
27
58
13
4
0
0
0
14
2
4
3
0
0
0
0
0
0
0
0
8
0
58
9
39
3
61
8
0
31
38
9
37
5
6
0
0
0
61
0
0
48
0
0
0
0
0
0
1
0
0
0
0
0
0
5
0
0
0
60
0
0
0
0
61
0
0
0
0
0
61
0
0
51
0
49
0
0
0
61
0
0
0
13
0
20
65
24
30
3
28
0
0
0
0
0
0
0
0
0
58
0
0
0
0
0
0
57
0
0
0
0
0
0
59
10
0
28
0
56
0
4
0
0
2
19
15
12
18
12
3
10
55
0
2
3
10
4
0
57
0
54
0
0
0
58
0
58
0
0
0
13
16
19
28
9
8
27
14
6
32
15
0
3
0
0
0
0
0
0
0
0
0
0
0
0
0
60
0
0
50
0
0
0
0
60
0
0
0
0
0
0
0
0
0
2
0
2
13
0
0
0
0
0
0
0
0
0
0
0
0
11
6
2
15
5
23
28
7
0
61
0
0
0
0
0
61
0
13
0
0
62
0
0
7
0
18
8
0
0
0
0
0
23
26
52
0
0
0
0
0
0
50
2
25
37
2
8
23
1
0
0
50
0
77
5
4
3
3
0
0
0
0
0
7
0
0
53
0
0
0
5
9
5
13
35
77
49
15
17
0
62
0
0
0
0
3
0
62
0
0
0
0
0
0
0
0
0
0
0
7
1
0
0
0
0
0
0
61
0
0
0
0
60
1
9
11
0
0
0
0
0
60
0
0
0
0
0
61
0
0
48
0
54
30
13
12
0
0
0
55
0
45
0
0
0
0
0
0
0
0
0
0
0
0
0
0
0
0
0
0
64
12
0
0
58
0
61
0
2
8
15
29
19
43
58
19
0
6
4
10
0
23
18
25
0
0
0
60
0
3
0
0
0
0
0
0
19
0
0
12
61
3
22
4
33
38
33
0
0
0
0
61
8
2
0
0
0
0
60
0
0
0
0
0
0
53
0
0
0
61
0
0
0
4
0
0
0
0
0
0
0
0
57
0
60
0
0
0
0
0
0
0
0
9
0
0
0
15
5
0
0
0
31
16
2
16
6
7
0
0
0
12
0
0
0
0
0
0
0
0
0
60
3
0
0
0
0
0
13
36
23
3
2
0
0
0
5
65
35
13
64
20
19
7
0
7
3
1
3
0
5
0
0
0
0
0
0
0
14
62
0
50
2
0
0
62
13
0
3
6
0
26
21
7
33
31
0
0
4
1
0
0
0
0
0
0
0
0
0
51
0
0
0
0
2
0
11
0
4
0
53
0
0
4
0
0
0
0
6
15
5
2
0
0
49
0
0
62
0
0
0
0
51
0
0
0
0
5
0
0
13
5
61
21
4
8
0
0
0
0
0
0
0
0
0
0
0
54
0
0
0
62
0
0
61
0
11
15
0
0
0
0
0
0
13
22
28
34
29
23
11
62
1
0
51
0
6
58
0
0
50
0
0
0
61
0
5
0
0
0
0
11
4
19
0
11
0
8
63
50
14
21
37
26
1
0
60
0
60
0
0
61
0
0
0
0
0
0
0
0
0
0
0
2
5
0
0
4
0
9
0
0
2
0
62
0
0
5
56
2
0
0
0
0
0
0
0
0
0
0
3
0
0
0
0
0
0
0
23
14
23
18
13
22
0
0
0
60
0
0
0
0
58
0
0
0
0
0
0
0
0
0
0
0
2
0
1
0
50
0
0
0
61
16
44
19
23
33
16
5
0
0
0
0
0
3
0
0
0
0
0
2
0
2
0
0
0
5
0
2
0
4
7
5
54
20
2
17
2
64
6
35
5
4
0
0
0
0
0
0
0
0
60
0
0
0
0
0
0
56
0
53
3
0
0
0
0
0
0
62
0
0
0
0
0
5
10
0
55
0
0
0
0
49
0
0
0
0
0
62
0
0
56
0
59
12
22
16
27
13
22
3
0
59
3
9
0
0
0
0
0
0
0
0
63
0
2
0
53
0
0
0
23
58
0
0
0
0
0
0
5
23
21
28
59
7
4
2
0
0
57
12
0
0
0
0
0
0
48
0
0
5
0
8
0
0
0
50
3
0
3
13
1
1
1
16
15
10
21
22
29
0
0
7
0
0
0
3
0
0
1
0
0
0
60
0
0
1
0
1
0
61
0
0
53
0
0
0
0
0
0
13
1
5
0
8
0
0
0
0
0
0
0
0
0
0
0
0
0
0
0
0
0
2
61
14
6
6
18
14
24
0
27
12
0
4
15
3
0
62
3
0
0
0
0
0
4
8
62
9
20
0
5
13
1
0
19
59
22
22
56
16
22
24
9
12
52
0
5
6
0
60
0
0
6
0
0
0
4
2
58
9
0
1
0
0
0
0
0
9
0
0
61
6
20
7
42
27
26
16
14
0
2
0
1
11
0
13
13
4
0
0
0
0
1
14
0
7
0
6
0
12
12
3
50
0
2
0
51
3
0
0
0
52
16
1
4
0
0
2
0
0
0
52
0
0
0
0
0
61
2
8
42
19
63
26
12
21
13
0
7
6
7
0
57
0
0
0
0
0
6
13
12
11
54
1
5
7
66
1
3
8
6
0
0
5
19
14
31
28
25
14
2
0
0
5
62
0
0
0
0
5
0
1
0
60
3
13
0
4
13
4
0
0
0
0
5
0
60
0
8
4
18
5
16
38
11
65
0
60
5
0
14
0
52
0
0
1
61
0
0
0
57
0
2
52
0
0
45
9
62
0
7
6
0
6
15
0
20
3
0
6
0
50
0
0
15
1
16
0
0
0
0
0
0
0
0
0
2
18
15
15
14
2
3
11
17
4
11
57
7
0
0
0
0
0
0
9
0
12
51
2
7
11
20
15
11
2
0
1
61
0
6
61
52
20
4
17
17
14
0
0
9
0
0
0
0
0
3
56
5
63
0
11
8
0
0
2
61
11
0
6
58
5
62
0
10
0
0
0
13
4
10
9
12
45
11
1
7
61
13
0
12
9
0
0
0
7
0
0
0
4
1
2
3
11
13
0
0
4
6
4
7
8
0
10
6
11
19
13
0
3
0
7
0
23
9
5
0
8
0
0
1
0
0
0
61
4
4
15
15
2
0
0
13
11
8
3
8
9
4
60
0
0
6
53
0
0
9
0
16
28
19
19
18
10
60
10
0
2
3
0
13
22
15
25
72
9
55
8
0
0
56
14
1
54
9
11
1
0
0
2
11
6
0
0
0
11
2
3
0
0
0
8
59
15
3
54
8
61
0
46
27
26
22
24
0
0
1
0
0
0
6
0
6
0
0
0
0
1
4
19
11
0
0
0
5
0
0
60
0
3
4
0
0
0
1
2
0
0
16
16
0
0
0
61
2
10
1
0
0
61
7
9
0
12
67
19
0
1
53
11
68
7
60
25
12
13
0
0
0
54
0
0
4
9
5
63
6
4
13
63
3
6
0
8
4
20
0
3
19
49
17
7
2
8
12
0
61
0
0
14
7
19
0
69
1
59
3
6
0
70
0
10
4
4
0
11
0
3
4
0
11
15
18
3
2
0
3
14
37
73
29
3
0
57
1
0
60
3
62
0
1
61
16
1
1
0
0
12
3
56
9
0
0
6
2
0
0
47
3
60
0
49
1
3
17
0
62
11
0
1
1
9
0
0
0
60
11
0
0
0
12
19
6
3
4
6
0
0
1
0
7
10
19
0
2
4
0
0
0
0
23
10
11
4
24
27
7
21
4
20
25
12
15
39
15
25
23
13
27
33
58
11
4
2
0
14
0
8
3
54
10
4
0
0
3
5
0
0
0
48
0
3
0
0
59
4
0
11
4
1
10
0
4
0
1
55
37
27
8
31
5
1
0
0
0
0
0
14
0
12
0
9
10
61
0
61
0
3
0
0
8
2
3
0
6
76
5
0
1
1
0
0
45
3
4
0
0
0
2
0
10
6
1
0
5
2
0
11
2
26
58
3
5
0
0
0
7
9
6
6
4
9
13
8
0
60
0
0
5
6
1
3
22
8
1
0
62
0
9
43
65
18
14
49
64
10
30
3
16
0
56
18
10
0
0
60
7
8
9
1
60
4
61
0
4
2
9
12
6
64
6
0
0
0
64
11
3
22
3
55
2
1
3
3
19
58
7
28
1
0
10
10
0
0
4
0
13
0
1
17
0
9
1
1
0
1
0
1
60
0
55
16
0
7
33
61
1
2
2
8
2
2
8
0
0
0
13
3
0
61
4
57
0
2
0
4
58
5
11
1
20
54
0
61
26
38
26
64
16
6
7
11
0
0
0
5
0
6
15
2
4
9
57
8
1
0
21
0
13
5
3
30
23
14
65
27
18
3
0
0
13
62
16
4
17
4
8
5
1
1
5
3
10
0
50
5
0
0
7
12
2
3
0
0
1
12
7
0
18
58
12
4
1
17
42
40
23
56
5
0
8
14
0
11
0
1
3
53
0
8
0
0
5
0
0
6
10
8
0
8
4
13
4
8
0
6
5
7
52
17
2
57
0
64
24
0
12
7
4
0
16
0
0
2
0
0
51
4
0
0
0
0
0
3
0
0
3
28
48
32
11
14
1
16
55
9
3
61
4
7
23
11
62
2
0
60
3
17
19
25
29
31
9
29
16
2
3
10
3
4
0
30
13
7
2
2
0
0
0
7
0
0
16
3
5
1
36
3
2
3
3
0
14
0
3
0
0
1
6
0
17
21
20
20
24
2
1
1
54
3
1
57
6
1
0
12
7
8
49
8
9
10
2
17
0
8
12
4
60
14
6
4
10
0
5
7
0
0
0
0
1
13
0
1
12
17
56
6
0
0
2
0
62
21
3
0
1
0
4
0
0
55
0
60
9
3
86
30
14
16
5
27
0
12
8
3
0
2
10
0
0
5
0
9
0
4
25
63
26
43
29
21
8
50
0
4
0
2
0
64
3
3
20
14
44
59
2
4
8
12
41
59
0
5
29
0
0
60
0
0
1
27
15
5
61
2
13
0
15
12
35
58
0
13
4
16
1
7
2
2
0
0
53
1
33
0
0
12
4
4
63
11
11
4
4
3
0
11
0
2
8
67
8
13
18
5
5
15
0
15
2
9
8
0
9
0
5
60
0
0
1
15
8
0
63
10
60
1
2
7
10
8
19
29
11
14
23
16
50
11
13
15
0
5
3
3
62
1
13
0
3
0
0
24
9
4
2
26
22
16
14
0
1
60
1
3
2
0
28
6
2
5
12
0
0
19
56
7
18
3
11
0
23
3
0
16
13
6
7
7
44
0
2
6
59
18
64
18
17
6
35
10
6
2
2
57
0
0
3
2
11
4
3
7
3
5
7
0
9
3
0
53
4
4
59
4
3
0
13
9
30
1
61
1
8
58
28
59
0
53
16
6
7
14
5
10
3
13
4
11
2
3
13
23
19
0
6
9
1
5
19
8
73
24
4
3
0
7
0
2
13
0
1
11
3
4
57
1
12
55
9
11
24
22
15
0
11
3
12
0
0
2
7
4
0
11
20
54
0
5
0
13
14
24
0
2
29
0
0
62
3
0
9
12
23
18
14
22
16
10
0
7
6
10
8
0
21
62
10
11
22
40
7
11
0
0
9
0
17
3
41
3
9
12
49
1
61
1
12
13
3
8
0
11
11
10
21
19
4
0
2
0
3
6
11
19
6
10
1
0
14
6
13
3
37
5
55
19
8
4
0
4
5
51
5
0
3
3
2
18
3
33
15
13
7
9
0
54
12
0
5
10
4
2
0
15
7
0
21
3
18
9
2
0
10
18
3
30
0
0
73
0
53
1
1
38
3
11
64
47
0
9
52
7
60
14
19
3
1
32
1
61
12
8
60
0
61
3
12
61
1
16
0
0
8
26
16
59
16
61
3
3
0
23
1
10
61
6
64
7
3
3
0
5
3
13
58
5
7
51
24
1
11
3
24
19
5
0
58
0
3
14
0
13
0
46
55
2
61
0
81
3
54
4
2
14
0
0
60
0
9
0
10
3
12
20
1
1
16
5
6
55
16
63
23
11
14
2
0
37
61
3
2
7
57
6
1
14
29
56
6
0
25
63
17
55
3
37
22
0
11
2
10
62
13
4
1
0
62
0
0
0
15
3
11
0
2
80
1
0
0
13
12
23
17
13
17
2
11
0
1
7
21
55
3
24
8
14
2
8
5
6
24
11
62
20
13
0
11
0
4
58
16
3
9
13
0
0
7
8
2
17
49
11
0
4
10
0
0
0
14
13
0
0
0
0
13
0
25
0
13
6
1
13
3
0
5
7
11
2
0
0
0
15
15
0
11
4
0
4
15
23
10
0
1
6
1
12
2
18
3
1
4
0
12
64
23
7
7
23
1
3
3
56
8
0
6
8
11
51
0
0
7
0
60
3
16
16
13
0
3
0
19
14
9
5
14
18
10
3
3
3
0
28
7
17
12
10
61
10
11
3
16
17
16
60
16
10
12
0
0
11
2
15
3
15
9
60
15
6
25
16
12
0
0
11
61
5
0
3
9
4
5
60
0
0
60
11
62
1
25
46
4
0
5
11
0
33
4
10
5
8
14
55
13
4
64
1
8
2
0
5
61
10
2
14
11
11
5
13
2
0
0
28
56
13
13
11
57
0
58
10
8
12
12
7
0
3
17
8
0
0
0
12
2
8
17
11
4
4
7
13
4
3
7
14
2
52
23
6
5
19
0
53
5
56
7
58
44
8
1
13
3
63
0
0
16
5
0
9
49
4
17
13
6
5
57
10
61
22
3
61
0
3
0
8
4
11
0
15
17
13
55
1
3
0
0
13
59
14
2
53
0
4
3
3
6
13
6
6
0
2
17
63
10
16
8
2
56
6
1
16
4
2
20
0
9
15
25
39
10
0
42
58
0
8
3
6
2
14
17
0
15
11
16
0
3
8
13
0
60
8
13
3
0
68
2
10
51
16
50
1
0
57
15
0
1
56
15
5
3
74
0
21
16
23
11
0
6
15
1
20
4
4
2
0
13
33
12
11
24
4
2
60
7
2
25
0
12
31
3
57
7
12
9
20
4
6
3
9
3
0
84
20
7
56
10
24
16
5
9
16
7
2
71
5
2
0
17
18
7
0
7
5
17
11
16
2
11
4
0
17
37
6
0
4
0
5
7
3
14
8
0
1
16
5
69
10
16
5
0
19
1
58
4
60
5
9
53
6
17
13
7
18
9
24
8
10
4
6
44
0
0
8
3
5
8
6
0
0
11
12
0
8
10
6
0
54
7
0
2
60
11
25
63
7
59
1
0
56
10
62
2
60
34
10
62
6
11
8
0
2
9
64
20
8
23
20
20
7
8
17
0
62
0
5
0
14
49
10
30
4
14
10
4
8
8
13
0
16
14
0
3
12
7
61
4
18
3
8
2
5
12
4
55
3
9
13
0
3
6
61
0
3
0
12
10
45
9
7
61
2
44
31
24
1
11
23
9
14
0
0
5
0
6
5
5
9
29
11
12
0
55
4
2
13
11
63
12
10
4
16
0
0
74
1
10
4
59
7
0
0
1
4
13
11
10
14
11
9
0
0
3
11
7
0
0
3
14
5
6
0
5
0
0
12
51
20
25
5
4
10
16
8
23
11
23
4
8
10
9
2
13
55
0
11
0
6
2
21
13
9
65
17
1
17
3
12
28
0
15
61
0
0
0
56
14
40
11
19
8
10
6
15
0
62
1
23
0
0
16
9
9
7
21
56
15
0
0
0
13
22
15
0
53
3
15
60
5
0
54
0
2
51
9
9
34
22
5
1
6
0
0
47
2
23
53
2
63
0
1
0
15
6
54
52
10
8
64
7
0
12
8
0
10
64
5
8
0
7
16
13
2
1
58
14
35
2
15
8
2
59
0
27
0
0
0
16
60
7
7
2
11
7
12
29
52
7
44
7
5
12
8
0
0
14
14
16
2
7
3
1
60
8
0
2
29
58
9
14
9
61
7
18
2
43
57
0
2
57
12
6
15
13
5
13
12
4
20
10
6
18
26
7
11
0
3
6
12
23
61
7
20
36
2
23
10
0
4
15
4
18
33
28
30
16
12
8
5
3
3
0
7
0
14
0
8
13
7
0
8
0
9
0
0
0
9
3
8
6
55
14
6
4
8
2
13
9
1
14
3
8
2
7
62
3
14
53
6
0
12
7
44
3
0
52
3
6
9
52
4
0
2
12
16
7
11
2
10
19
61
13
0
1
5
60
3
62
10
8
16
15
10
7
2
10
17
12
9
12
13
53
6
8
15
8
3
8
5
8
2
14
35
17
10
52
16
10
67
7
18
0
57
2
4
61
21
18
10
1
23
10
3
35
13
1
18
25
0
0
25
26
48
12
8
8
0
59
1
9
5
1
9
40
18
1
62
9
0
8
13
9
58
2
5
8
7
2
18
11
6
3
7
65
9
60
14
48
26
2
2
12
25
4
3
1
23
23
14
17
4
2
1
3
6
14
10
3
13
24
9
27
15
9
6
60
16
9
0
9
21
51
5
0
12
11
24
4
51
1
4
59
10
18
4
20
62
12
8
7
51
19
12
5
13
14
55
8
78
32
7
54
19
26
14
3
2
42
0
12
0
6
0
1
3
61
10
3
28
2
55
10
19
4
0
0
1
0
0
13
12
32
23
54
12
8
10
17
18
0
0
0
11
4
1
19
10
10
17
6
15
1
0
6
0
49
2
0
11
4
13
9
3
5
4
1
2
1
2
52
2
22
8
8
12
1
50
11
0
55
4
7
0
8
0
1
12
15
20
21
12
52
4
10
19
8
6
55
8
8
5
15
11
32
4
6
21
0
0
8
0
3
0
11
2
1
0
61
0
36
1
11
60
13
11
6
41
8
60
12
1
56
13
13
20
27
6
4
0
7
0
61
9
1
7
14
0
8
2
10
51
5
4
2
3
0
61
0
18
10
0
8
0
2
11
62
13
44
2
58
4
50
2
57
2
53
0
8
20
3
2
57
2
4
16
3
55
3
0
3
0
13
6
61
10
58
5
2
0
60
2
7
55
3
6
4
8
4
8
0
63
11
14
3
15
12
10
10
3
21
0
7
2
15
7
12
6
3
7
0
12
61
3
4
53
0
0
61
6
54
79
27
57
0
0
5
