6.263212153113650871e-04
8.177194124334707936e-04
7.365305528983512318e-05
1.287802808850324610e-04
9.980249150810527325e-04
2.395128877334951056e-04
1.151988747938315072e-05
1.892682115722799097e-05
1.174837249132698602e-04
1.529048532811216887e-05
1.571630798613554703e-05
8.754337978400528186e-05
2.002060434347363582e-05
1.539938792779471655e-04
6.577921807605635607e-04
4.407873350598112694e-05
9.376158444672766379e-04
1.615942629682454168e-04
4.809191822580105580e-04
4.858936973772820522e-05
2.957066336761737801e-05
3.320661320938000927e-05
3.651907061008596855e-05
7.834459562594542348e-05
4.196580733928367835e-05
3.848001516515431319e-05
6.615316767140111409e-04
7.006075662063793175e-05
4.726557023182476058e-05
2.171773384893604941e-04
5.121151554948744078e-04
2.455020310681010898e-04
4.419609588146578005e-05
4.400843538765464302e-05
3.168359559246880508e-05
3.943849896995699211e-04
2.891711221952864008e-05
3.621487974145853883e-04
3.074917198286897246e-05
3.058669419320203531e-05
1.536322521585864465e-04
2.102341478416036580e-05
8.726973328880838210e-04
2.144202878604506424e-04
4.194935857071424579e-05
3.851674853783126906e-05
5.950288328548936079e-05
1.529443137783248474e-04
2.192029135872353152e-05
2.248624047063163545e-05
1.207947838965939269e-05
6.472104168975256755e-05
7.591980173538015464e-05
2.431180014317302351e-05
8.517137031216481802e-05
1.111392617543227601e-04
8.525962617033089330e-04
2.414611233569896598e-05
4.562452247258708127e-05
2.773181930736390299e-04
2.256002336439300038e-04
7.452603586000083880e-05
9.509650572541161750e-04
1.256614050061388710e-04
9.651895119817677227e-04
7.907449505872854445e-05
1.607170355675258122e-04
6.539542872108228266e-06
1.586201287632205137e-04
1.462384495987123501e-05
1.270380922380187627e-05
8.290529430693416302e-04
2.282502812600561981e-05
2.060489658117781175e-05
1.307878384260163784e-04
4.545035500902461223e-05
4.243807894299678196e-05
1.618963547710405848e-04
3.400130216002494876e-05
1.257853418679122370e-05
4.932134162034529368e-04
4.405166116261405307e-05
9.710376143376997504e-04
4.896922159525196605e-05
2.835546413917366948e-04
4.419172765446344187e-05
6.496033805114542758e-05
6.254678872308350179e-05
6.130256191361205254e-05
1.224254092869747623e-04
6.413579898056909201e-05
3.222488294762904104e-05
1.415327449502123969e-04
6.383335885458141234e-04
9.312198116762093747e-05
5.779577590488971239e-04
1.062288678439493594e-04
1.822191618808810532e-04
2.398725736052487179e-05
3.350062146578736133e-06
8.445733667341581707e-04
4.145656344212156341e-05
1.842600788982684534e-04
4.271307611880548194e-05
8.912585322762289763e-06
6.563725381103502343e-06
2.235427572783166283e-05
4.731209210573350532e-05
8.581883441853843664e-04
2.540780197279879360e-05
9.099402492620534133e-04
2.279745977283864633e-04
9.676284182604799611e-04
1.707663857485330894e-04
2.868429423208418427e-05
2.545029648926000476e-05
9.949188009579224001e-04
7.094221490400176577e-05
1.843948808599726874e-05
3.784593471622965666e-05
4.922379292793266359e-05
7.869466948932091199e-04
1.986981685732081004e-04
3.822795454112570823e-04
3.716005316789505741e-05
1.488220287632069372e-04
1.527809043941896761e-04
3.616153948360345538e-05
8.543953449043906190e-04
5.626100681310752805e-05
1.919222744606319253e-05
1.965910490764333218e-05
1.544887046445175827e-05
5.535414766943969056e-05
1.622095320052974188e-05
1.434180418358188547e-05
2.420138438619101606e-05
5.112455453326614219e-05
2.990901263622003370e-05
2.439057576248959691e-04
6.534963002918781072e-04
9.176526807216367487e-04
9.726243021297431568e-04
2.925094312091758297e-04
1.404614635575063275e-04
2.623278898381542490e-04
2.547286727005992901e-05
2.497792850265634357e-04
4.386556476176917130e-05
5.406599908053255632e-05
5.436297653371724437e-05
2.419202611382287316e-04
1.281513311579551839e-05
8.959548014109142144e-05
2.082425090257356004e-04
7.311255044298858863e-04
1.463334491269563387e-05
5.702113216177195909e-05
1.449365308496819438e-04
9.610855947203011951e-04
2.633496289661252376e-05
1.890578673102716323e-05
1.304646136834897163e-05
9.759000240835424833e-04
7.287884855267101614e-06
2.823571332621899188e-05
2.726304237410381859e-05
5.733637762062038234e-05
2.046877015231540753e-04
1.999630900039184311e-04
6.686069640671199465e-05
4.554228316554498335e-04
8.680578143125394774e-04
5.319174171295459885e-04
6.092545226737966502e-04
7.164018599592480996e-04
7.462680441802094222e-04
9.988539584989686304e-04
2.996940040911333369e-05
7.312171284457047449e-05
4.063168753543067169e-05
3.184718218929294409e-05
6.768357021439408427e-04
1.013535147639244016e-04
1.071883072339963050e-04
9.859215013718891640e-05
2.184252991843660396e-05
1.815342777897743787e-04
4.148907272446544781e-04
1.724495072286114095e-05
1.201725484545335121e-05
2.622299785882686862e-04
1.004198607366113549e-04
9.654058050334590746e-05
2.209180332157778537e-05
1.330804862079704165e-04
1.441584734285239477e-05
9.957026378248912124e-05
3.101400360072670281e-05
7.590121587297549155e-05
9.157494995700732332e-04
1.240787389227282489e-04
3.221011858489664093e-05
6.497990875802273081e-04
6.223003038678953658e-04
9.921581534224621635e-04
4.225775554724808813e-04
9.108684910934528034e-04
8.653964323500629163e-04
8.399155816883885350e-04
8.660002182581116870e-05
2.469577705865866335e-05
5.342888110604349095e-05
3.103644451574183449e-05
2.696751185826684605e-05
7.979329324114825539e-05
5.268829017202047993e-05
1.206521405878735465e-04
4.335299933400094119e-05
1.809131886798542865e-05
1.469419543387306959e-05
1.434855891591091392e-05
3.031145990362027476e-05
8.581137338301569883e-04
6.121984583110640088e-04
7.841174647460480429e-05
1.164765979579929223e-04
3.073947866927273509e-05
9.307258844637456008e-05
1.562084640392980006e-04
8.634087167214143932e-05
2.183020719470629700e-05
6.836797100562286289e-05
9.331530955503097857e-05
1.527619848408212633e-04
8.613952391810508757e-04
8.860375623848115723e-04
9.238819182498803073e-04
5.338116187434405191e-04
9.715257241909025510e-04
9.014652646028853411e-04
9.418944703735165902e-04
7.566304865500583787e-04
8.856962479640850816e-04
8.719245219079851950e-05
2.391358684640243482e-04
1.631808973878712266e-05
6.176674194457998368e-05
1.981739819971739536e-04
9.005393008065798455e-04
2.049746210380787304e-04
2.215352524181923854e-05
1.517863397126895109e-05
2.701164528529087505e-05
4.599822438633438537e-05
1.892663028535412906e-05
1.203251426507012667e-05
1.289275239113596427e-05
1.007973214317559041e-05
3.095781155748600355e-05
3.913829581203565056e-06
8.227244158983681999e-04
1.058819535594279770e-04
8.886731915523915504e-04
9.853860627926369631e-04
8.286053060062581466e-04
6.563285640607263716e-04
9.852601101656421889e-04
5.850217870134732934e-04
9.767836224177095517e-04
8.704801907513104453e-04
7.568222357968723557e-04
8.498197453428169013e-04
5.305904588369658725e-04
6.874248185021469837e-04
9.725962041573499306e-04
9.825949541250045272e-04
8.688499422763173996e-04
5.918732541765336919e-05
1.006158543840340869e-04
1.483863795562756493e-04
9.182693522646889761e-05
2.242007044894744894e-05
1.027760311144154670e-04
3.536473673348972113e-05
5.845413368654739372e-05
9.626109388292114488e-04
1.316347805802031701e-05
1.240065004953772032e-04
3.797689298778994527e-05
7.960962606142762965e-04
8.722500845603775588e-06
2.077084590644817652e-04
5.800831665647709912e-05
1.121239707722043732e-04
9.272497834854620535e-04
9.702856193504194593e-04
5.119762521759163576e-04
7.661839267801839881e-04
8.757808552958268322e-04
7.950510843892644175e-04
6.376972117415613539e-04
8.270349113592700974e-04
8.815238451427287458e-04
8.208709453511042753e-04
9.116981834549342523e-04
9.762821091754414482e-04
9.886628894789639688e-04
8.858287546485987818e-04
1.124180843582456291e-04
7.947939420760441465e-05
7.915348928433374454e-04
1.164178161490170282e-04
2.041873102422986364e-04
1.963875181943963710e-04
8.738973260373761320e-04
1.032173175108397345e-04
5.751646147245104146e-06
7.766387026530985338e-05
1.240182533857048242e-05
8.714754195040530504e-04
1.471203886849181686e-05
1.684106377575211866e-05
9.820532990878483304e-05
6.809941371732630699e-05
1.836656956156756948e-04
6.626084789552733056e-04
9.532857296224994670e-04
8.952857706577832531e-04
9.907829151188929373e-04
5.310676356413690513e-04
4.315245179957738486e-04
6.200825359310435658e-04
9.018754925377292508e-04
7.641044034999433521e-04
9.251861363478441902e-04
7.996567791292985561e-04
8.519886482674099426e-04
8.680102146350066050e-04
6.119648860974935545e-04
9.985745549720981273e-04
3.992132174790441468e-05
2.076196777531791327e-04
1.709575476316338438e-05
1.463611431262723528e-05
2.998140617216371595e-06
7.597486189059310391e-06
6.075671212946165411e-05
7.087405540184832375e-05
8.540682985473946331e-04
4.653554133593473807e-06
8.510247585302721518e-06
9.885368709661168651e-05
7.990793149470487577e-05
1.406624095283692810e-04
5.350420630118035703e-04
4.978957845291898110e-05
6.749851454272981499e-04
7.721051954520108396e-04
8.870006332004631844e-04
8.960758116997036282e-04
8.334237946893141569e-04
9.108382266448389331e-04
4.714157276635155824e-04
5.148378246980778172e-04
7.082774820431625429e-04
7.176516127161969294e-04
9.624126416920564253e-04
6.040656132032529158e-04
9.531496769140668235e-04
9.448916814241981044e-04
9.208690932878127455e-04
3.437155674621550361e-04
6.138389842380576056e-05
1.089283321104028701e-04
3.665508659211891285e-05
4.011918430413263792e-05
9.645430694449341757e-04
5.227631847848357438e-06
1.911793104958370293e-05
5.410930837757010892e-05
2.082530649980540716e-04
4.179884559074587003e-05
1.419791170020889837e-05
2.902054846212198669e-04
1.230269523992966185e-04
2.827400221616649389e-06
9.562864584633512521e-05
6.432481634746078925e-04
3.391518808376625671e-04
8.826885450885502138e-04
9.583187039079454905e-04
9.328457518182897701e-04
9.260039415075471680e-04
9.271929828824632125e-04
8.953235543591731016e-04
9.886052532146472061e-04
9.471973590500226692e-04
5.315013859686912312e-04
7.842796319237343994e-04
8.217017647431656968e-04
2.956464163537120271e-04
9.066866224829439602e-04
7.249278418418603209e-04
3.492035816698990658e-05
9.212151123312306567e-04
4.073025053111800631e-04
6.098849677316220408e-05
3.253016629963800810e-04
6.967977417848825183e-05
3.749054366286586060e-06
6.143167432304252884e-06
1.439902449751340185e-05
4.508942285763595237e-06
5.443915137359756073e-05
7.965046311129153622e-04
9.065607693629074149e-04
1.230269523992966185e-04
1.093024087261973420e-05
3.061981419671955251e-05
6.824218180103702736e-04
5.079866705309799002e-04
9.332805195616522553e-04
9.777355073357085757e-04
8.202959203280624223e-04
7.139002869400723483e-04
7.528807041033980241e-04
3.922131189640909454e-04
8.946933429246906044e-04
9.965795608176675202e-04
8.876886184101540067e-04
8.587473271209900005e-04
9.335260034691872377e-04
6.650188427254066781e-04
9.662469035421894503e-04
1.431777308347204070e-04
3.916648090058760801e-04
1.312992103487120588e-04
3.998736400800950719e-05
4.022913393830762629e-05
6.781890012407254531e-04
9.594938621703130721e-04
1.552215339162277274e-05
4.022785402013617784e-06
9.834487273763237170e-06
8.908105603500082736e-06
3.475148544918038596e-05
2.066765252285440724e-04
5.674523232968020636e-06
5.993590436847995306e-06
2.164985533992247468e-05
8.542802063304932858e-06
9.009256946149735157e-04
5.793124680697481210e-04
9.741090365943394502e-04
7.810469934186325958e-04
7.746510420845176270e-04
6.024184347999117506e-04
7.286652206449639735e-04
8.041058134194978280e-04
5.599754001458512320e-04
8.667379009068554296e-04
7.599382268900223281e-04
9.743116851826938429e-04
8.110059106044564814e-04
9.706158184956681367e-04
8.954853728101452859e-04
1.787415877041453882e-05
1.626910235388301373e-04
1.966952408225530746e-04
7.923281283850336365e-04
3.853011947422269046e-04
8.036471584002002899e-04
6.047115669436387009e-04
7.076118459569125108e-04
3.155356360096117641e-05
8.194924197457709170e-06
6.655771932206899777e-04
9.195975557818591994e-06
6.653297033154537132e-05
7.497291168889752555e-06
1.652790317590024927e-04
1.204941945793791547e-04
3.490103231418295593e-06
3.196292585316840018e-05
9.121319614914247254e-04
2.919479381190415168e-04
7.589793782742937367e-04
7.148831797941790356e-04
8.460382843559210997e-04
9.766376865649739614e-04
6.753429263406385274e-04
8.037601885798606460e-04
8.275734963846259618e-04
8.858710357982912953e-04
5.307447365154871477e-04
7.236931890426401282e-04
8.019758948745181470e-04
8.634261654723029977e-04
2.082227851674112173e-04
1.709669915306299970e-04
1.255858354666239407e-04
2.265430977466120765e-05
1.026787442390819649e-04
1.514682688867896587e-04
7.370720025136057174e-04
1.287827321838630468e-05
6.241444927412853616e-05
8.582139289545764882e-04
8.353306426789330885e-06
6.243370266734160623e-05
7.434847867560101520e-05
9.201722802198997186e-04
4.907795360775679683e-06
1.334701242683422606e-05
8.098604744155579738e-06
9.556546433184820444e-04
7.947581812349779895e-04
8.930889667118080411e-04
9.348255838322883093e-04
5.997856687440794587e-04
8.990443317841156912e-04
9.807013654646867806e-04
7.519140380766176079e-04
9.523526715699004441e-04
7.634218824194016761e-04
9.806230207369814877e-04
9.223883971569701856e-04
8.003120241881767072e-04
9.424475465811266162e-04
6.251583619096834354e-04
4.635736574933879695e-04
7.855504618285991114e-04
1.230189889377397705e-04
1.367759167264503972e-04
1.371955996047891091e-04
2.917448384615051182e-04
1.556475421219394306e-04
1.267006342409171538e-05
9.888012014448444020e-04
8.738045745937395026e-04
7.566405728877123593e-04
1.761622296124754072e-04
3.556347746236365737e-05
3.180796661717000262e-05
2.316042313559307786e-04
1.571092830499054571e-06
2.158301460764011637e-05
4.122352245050642239e-04
9.338132931729914432e-04
7.895846111224402719e-04
5.536026313219810646e-04
5.848647311140764415e-04
9.937847337785354895e-04
7.564401723298974645e-04
7.765593894905054029e-04
7.400188561670351106e-04
8.001556754880789768e-04
8.216234002447198037e-04
8.426971979421660208e-04
6.826319875474773369e-04
5.015924446835073880e-04
3.343656159920938009e-04
7.962131748636691597e-04
4.377101668283644997e-04
6.382310367131216466e-04
2.391289406292740338e-04
6.972805386284974816e-05
7.055065761829570903e-05
5.987754256986388413e-05
7.649202240578301115e-05
8.145011416244019031e-04
6.473988895649984698e-05
5.560613836853578462e-04
6.107727612136848450e-05
7.552447824255015263e-05
8.889145437346313017e-04
9.701349936710457200e-04
6.565895882305605724e-04
6.092536089482569750e-04
5.970104902096595723e-04
8.602910679190722831e-04
5.714191116106270840e-04
9.292005176838591396e-04
7.668183499672798220e-04
9.413930037335260792e-04
4.407159141781580303e-04
1.341609590955750164e-04
9.005281608363002732e-04
7.719194306893273350e-04
7.924633188245433502e-04
4.353361501808761247e-04
1.204223185793384943e-04
6.758732347914575556e-04
8.605157764139947929e-04
8.008886753195776365e-04
9.944976518109216457e-04
9.798969742419449958e-04
9.546087692066107522e-04
6.721471303475778925e-04
5.674722596166192901e-04
8.663762073299885458e-04
6.466099943347458634e-05
6.451728891438968105e-04
8.411188146061343573e-04
6.366518414957500482e-05
1.295009623657472630e-04
6.435615803013217118e-05
1.588129430356577387e-04
3.475105147154877727e-04
9.926377397413421733e-04
5.625197863385889008e-04
7.809290865994356068e-04
6.357492893847016546e-04
8.606792769547677580e-04
5.483175842554421919e-04
3.729423160231393197e-04
8.823269091917662621e-04
1.759832024099683423e-04
9.577071661696079374e-04
9.387667623149686946e-04
8.897510545566866824e-04
8.122392653679977315e-04
4.748329086339264649e-04
3.426067022234136061e-04
7.757256827604086524e-04
7.901170277889724147e-04
8.125677288212118654e-04
5.655743520904810140e-04
8.535507457728686020e-04
9.853373575567925258e-04
4.687733737499533149e-04
6.465963291263365775e-04
8.544962162501112957e-04
7.630291032008074126e-04
4.028891975472737030e-04
5.942843949017229122e-04
9.634286759917509713e-04
5.863942545053513200e-04
7.602350588435946577e-04
6.293054708729206581e-04
1.766996078653715330e-04
9.685845501647971645e-04
5.146664336623807401e-04
9.541480019793491252e-04
8.513234013491910446e-04
7.697376200553884829e-04
3.543882142648113742e-04
7.085490028182483968e-04
4.621949334034924917e-04
2.132631185755018421e-04
8.531324415478325207e-04
5.355681470256001830e-04
4.106842241327068876e-04
9.859093254336315226e-04
8.891482576355302925e-04
5.163253950689616900e-04
8.458809383807830429e-04
5.342145545809140472e-04
7.749191443623404396e-04
8.842255886815086896e-04
5.608311999834025841e-04
8.747677411644616541e-04
8.902785307918215096e-04
8.165549163430263491e-04
7.996877308045213795e-04
6.785297466795903176e-04
3.676861844280621128e-04
6.138634839693013490e-04
9.210410418575287750e-04
6.332088497588150844e-04
3.234371687271808682e-04
7.558070491102686361e-04
9.452298487950816508e-04
9.799979042781625793e-04
8.895884562369893445e-04
8.851849206690243221e-04
8.286315515294573331e-04
5.572931372103129277e-04
6.607087507720654784e-04
4.531220996151219538e-04
8.192343656304723609e-04
5.007214099117529571e-05
1.885403532301266338e-04
7.679504641644463447e-04
8.835977070762446317e-04
6.955811981466109017e-04
9.094611227790094787e-04
7.004761775863954654e-04
9.812562437223615319e-04
5.491283197708307640e-04
5.785861298027716870e-04
8.695976482885336978e-04
7.037663206230782009e-04
8.055559663583400365e-04
5.436041567140614816e-04
9.061540970471959611e-04
2.111098317183479622e-04
6.434772940578925571e-04
7.390373533060490274e-04
9.764416981425938502e-04
5.930955626176626083e-04
4.946354903019312133e-04
9.595512807544226419e-04
6.479400924824796348e-04
7.253212470810233015e-04
7.330303550819872171e-04
8.777710604626065560e-04
9.809580557728070360e-04
6.869215252793825499e-04
8.727305308370292281e-04
8.758534211857904594e-04
1.499118759407114254e-04
5.167514016205521088e-04
9.123751462519757993e-04
7.954350075565219669e-04
5.714795153871632394e-04
3.764881644335860145e-04
8.163061587762587834e-04
2.482128741840838870e-04
6.924129231734577061e-04
8.410945071097852832e-04
8.867198084602234687e-04
9.395604592230544228e-04
8.463028240526249135e-04
8.796364322104510691e-04
3.542603429274038263e-05
7.660216321825341623e-05
4.075691855740526393e-04
3.503538348829104976e-04
7.558765597348582332e-05
4.984808266017548561e-04
5.986451827022509775e-04
9.117864013452603444e-04
3.303294909032805649e-04
9.857514193134520042e-04
6.560435940631270668e-04
8.970628985396356114e-04
5.913598092298633091e-04
5.819998656341196508e-04
5.852104464413310225e-04
3.054040400995994275e-05
3.802832344216300342e-04
5.332208047376107984e-04
8.599424650919118562e-04
2.727406452498470912e-04
2.770206766200544735e-04
4.443934117628334235e-04
5.858071055139246752e-04
8.194415276429056760e-04
4.941171959115253642e-04
6.497230422141120343e-04
6.524093712427792013e-04
4.842204633078717180e-04
5.399732863274886441e-04
7.222091464138546968e-04
5.500296270147808642e-04
9.757143997721762219e-04
4.159934494087913492e-04
9.400190923919415908e-04
6.680879802771766407e-04
2.194686466363560129e-04
9.253906087086649634e-04
8.416818360823530298e-05
8.909151367357814877e-04
1.899899691155670922e-04
1.801038043990343951e-04
9.226335352822134794e-04
1.715563920529072917e-04
3.566906861109941929e-04
9.536960360834179085e-04
9.990386191820466166e-04
8.530073620154343672e-04
8.661558535355551314e-04
7.936802498020867347e-05
2.929783075413805449e-04
9.170125369538650872e-04
3.667966903677655210e-04
8.907833298529288513e-04
8.173737558195837138e-04
7.509254836012280165e-04
7.879540227572201516e-04
9.648688698233875982e-04
2.718897391910113370e-04
7.295480772250284573e-04
6.449936686528934260e-04
5.119510219397938044e-05
9.458118350471611535e-04
9.873893805781852606e-04
2.490149802031327297e-04
4.331612532879614008e-04
3.235992123639119811e-04
3.084048158485952484e-05
1.630238889787083423e-04
8.780205285945363869e-04
1.727180388987337167e-04
8.355874168386456802e-05
5.348761999738327333e-04
5.439916645800790818e-04
8.934819940730198695e-04
2.422285641459076544e-04
7.448320846070721757e-05
3.911672039400571066e-04
8.715094784836896480e-04
5.757858730296439020e-04
9.095286508969957495e-04
8.326233177278208331e-04
8.595865390351731250e-04
3.760675391654144661e-04
9.912869490419362606e-04
4.952054866416144563e-04
9.532744344071808484e-04
8.586568450462683799e-04
8.542537850898535012e-04
5.748900708628656986e-04
3.172751137312523895e-04
9.598915523161277719e-04
5.427425530011298349e-04
9.185185022230202279e-04
1.952499825633724484e-04
3.734702020389280008e-04
4.797860628839023533e-04
3.792210879181023842e-04
2.997738202261679419e-04
1.762435155311381507e-04
3.058887541322885539e-04
9.496947536943300960e-04
2.284821583981022641e-04
8.182216959452537353e-04
2.320993963063067156e-04
6.935533476177813128e-04
3.519451755235047941e-04
6.216881658199779892e-04
9.570707133408351552e-04
9.536873680155988353e-04
4.338273632037425998e-04
6.220605616378271918e-04
8.520474433747482479e-04
5.246306372794773409e-04
5.655394614257902575e-04
9.353966141808500723e-04
8.650128485265806688e-04
9.322658106424297486e-04
6.001893376248457201e-04
9.123388532886744784e-04
9.930509325855041425e-04
4.932096833490939858e-04
7.425667032577853988e-04
8.409313007482488445e-04
3.810291848768132539e-04
2.406624747534058528e-04
4.315340508251885865e-04
8.208928583881558438e-04
6.588711924697676636e-04
8.797142400561730469e-04
6.988489266851471982e-04
9.228624102177729327e-04
9.299327512478638980e-04
1.888404372635266171e-04
4.332656711858451359e-05
4.232316340022634904e-04
7.768286274967284299e-04
7.702395718603982644e-04
5.021082835855450455e-04
9.086724010078928160e-04
5.578574468124708474e-04
8.613860172482779021e-04
4.355992138463937735e-04
6.446508641930748240e-04
6.861856864666115996e-04
9.393723050492575055e-04
8.108280390627387035e-04
8.843933418729577056e-04
7.659263818479145058e-04
6.396987025883982270e-04
8.475121908234628521e-04
7.051544337560722298e-04
9.444959350287662758e-04
7.896658333109707328e-04
9.299990915238032230e-04
8.696909474120717576e-04
6.874418383359115481e-04
5.410281082823820142e-04
7.266341187498470688e-04
9.089152756729390603e-04
5.096559929971267167e-04
5.517189999791893840e-04
8.456637419854695636e-04
5.249434753716863966e-04
4.854640581996028104e-04
7.967202203570389329e-04
4.956182625104332828e-04
8.839506381196349238e-04
8.134255010052715562e-04
3.469950409322741791e-04
5.165891735321448408e-04
7.108935428914442411e-04
7.465833952589040479e-04
9.594674242133782727e-04
7.820104014236717305e-04
9.475617046449391623e-04
2.098666798504567055e-04
9.781859683076765677e-04
8.859791663036187259e-04
7.966021006536871951e-04
9.577159371360055573e-04
9.528394592788202999e-04
5.013061001062357747e-04
7.926743658044355101e-04
9.103062487890722920e-04
8.518130646492094726e-04
9.948814977368547474e-04
8.044563363909240650e-04
5.972520051586993617e-04
9.314167639568049495e-04
9.181298198359666429e-04
7.389630730300078554e-04
8.889642833252997534e-04
8.490969363033062933e-04
9.324280322627886974e-04
8.404500114052027016e-04
9.122793067071199857e-04
9.961374683304935473e-04
7.386860127815975119e-04
1.818663009860443935e-04
8.261537270026764190e-04
1.378516165345677891e-04
7.795302289316241584e-04
4.078988458642296422e-04
9.977473240558865086e-04
5.801621651074784225e-04
6.770550352506177205e-04
7.786619541265693556e-04
6.165041083632250007e-04
9.251358737629722384e-04
9.416764663643384381e-04
6.385718156639574872e-04
9.874899853311580600e-04
9.913746193083161629e-04
7.809931848753448591e-04
8.540055462854523327e-04
8.306605792354204709e-04
7.496181100403731534e-04
8.616648994105302606e-04
4.548458173398994830e-04
3.835617635624677391e-04
1.665175950763542190e-04
7.050515589365202729e-04
9.868395194652102020e-04
8.469958629377938308e-04
8.961399227619404328e-04
2.359892763725834897e-04
4.094785133986755810e-04
9.038987451327473721e-04
7.326071143909373973e-04
9.051204391715694797e-04
5.450128762458650300e-04
9.810549639230892183e-04
4.174602233124602435e-04
9.549341770689334652e-04
8.121296823957457889e-04
1.960882375463546268e-04
5.885426254538250745e-04
9.886277256235809219e-04
9.186582683300414942e-04
9.738465176353239272e-04
8.160774997687525456e-04
8.047997340144830147e-04
9.784135947192851290e-04
3.771485538045515895e-04
4.606934493125436347e-04
7.573825572982917365e-04
7.484580629418813302e-04
5.579230150026814883e-04
4.412110382225886696e-04
7.749172954546468262e-04
9.942657303242397049e-04
8.529496174822792653e-04
3.062349300493316662e-04
7.479733070642202719e-04
9.505628669960186627e-04
8.109803034178630909e-04
7.485536171680795547e-04
3.148958050255279417e-04
9.236247354261761799e-04
8.752420234392488396e-04
8.105923534855730139e-04
7.018376025748063185e-04
3.274538123055892314e-04
6.870193782784195236e-04
7.677680874167425173e-04
8.925729714088781463e-04
9.009013534025944736e-04
7.325912192539529855e-04
8.689125623574378565e-04
6.209220841036922067e-04
5.840749232824959947e-04
6.005962955956123395e-04
6.473611913747623348e-04
2.356765217104150878e-04
8.115540679523025602e-04
3.975512614647902510e-04
9.327687391857963917e-04
6.090717922628829939e-04
6.745076402281391381e-04
8.718458815467622358e-04
1.707114185044433796e-04
3.589802369738936960e-04
3.150411990402446349e-04
8.826361593641252057e-04
9.022626362451546811e-04
9.295230374800622641e-04
7.286562787054418067e-04
9.236779339962808422e-04
9.893104112437267617e-04
8.703543700273597139e-04
6.753002122618090297e-04
7.578866668900285930e-04
7.901426549418166800e-04
9.026155287457093834e-04
6.792979671024212962e-04
8.998671089758270014e-04
9.712669700951970242e-04
8.051292760092865208e-04
