0
51
0
0
59
0
0
0
0
0
0
0
0
0
54
0
54
0
56
0
0
0
0
0
0
0
51
0
0
0
0
0
0
0
0
0
0
0
0
0
0
0
60
0
0
0
0
0
0
0
0
0
0
0
0
0
60
0
0
0
0
0
53
0
56
0
0
0
0
0
0
62
0
0
0
0
0
0
0
0
0
0
61
0
0
0
0
0
0
0
0
0
0
0
0
0
0
0
0
0
47
0
0
0
0
0
0
0
58
0
61
0
51
0
0
0
60
0
0
0
0
60
0
0
0
0
0
0
57
0
0
0
0
0
0
0
0
0
0
0
0
37
36
0
0
0
0
0
0
0
0
0
0
0
0
63
0
0
0
60
0
0
0
43
0
0
0
0
0
0
0
21
70
15
0
62
27
54
0
0
0
0
62
0
0
0
0
0
0
0
0
0
0
0
0
0
0
0
0
0
58
0
0
0
18
13
15
13
20
9
0
0
0
0
0
0
0
0
0
0
0
0
0
61
57
0
0
0
0
0
0
0
0
0
0
29
1
62
23
7
22
36
14
11
0
0
0
0
0
61
0
0
0
0
0
0
0
0
0
0
0
61
0
14
67
23
0
34
32
68
11
19
69
12
60
14
18
61
0
0
0
0
0
0
0
0
55
0
0
0
60
0
0
0
0
16
33
3
1
63
35
8
28
35
14
23
5
21
35
0
0
59
0
0
0
61
0
0
0
0
60
0
0
0
0
0
33
20
23
22
3
5
18
35
28
27
64
32
23
21
49
0
0
0
0
0
0
0
0
60
0
0
0
0
0
62
0
20
2
6
7
15
0
3
24
23
30
27
23
22
32
8
0
0
0
0
0
61
0
0
0
0
0
0
0
0
0
0
26
11
7
61
21
1
9
10
10
62
30
5
67
3
28
20
0
50
0
0
0
0
0
0
0
0
0
61
59
0
0
0
60
21
0
13
25
13
11
29
10
93
56
12
19
40
40
0
0
0
0
0
0
57
0
0
0
0
0
0
0
0
0
0
26
21
3
14
17
11
34
12
3
5
9
16
68
33
26
0
0
0
63
0
6
3
4
0
0
0
0
0
0
0
0
0
0
16
0
61
3
56
31
26
56
26
3
1
0
12
37
0
0
0
0
0
0
61
0
0
6
0
0
0
61
0
0
0
56
31
0
20
8
23
4
13
9
9
29
80
14
49
22
10
59
0
0
0
0
0
0
75
3
0
0
0
0
0
0
0
0
25
18
10
0
68
29
21
6
30
40
42
19
0
12
33
0
0
0
0
0
0
0
0
0
0
0
0
0
12
52
0
8
6
8
52
10
6
0
0
62
31
11
21
0
5
15
34
19
62
19
6
0
3
0
0
60
0
0
0
8
0
19
22
24
0
1
10
1
24
4
1
17
0
37
15
0
4
53
30
24
0
0
0
13
56
10
0
4
9
10
20
14
0
23
0
26
5
4
0
3
5
0
2
52
34
25
23
2
10
14
8
30
23
58
30
30
20
0
4
28
8
14
56
8
18
7
29
33
16
0
52
0
1
0
0
13
30
30
32
34
23
16
15
72
35
9
26
9
18
25
14
19
16
8
11
57
0
10
62
66
1
1
14
0
2
58
12
8
2
24
17
6
56
13
15
16
64
0
0
0
0
0
0
7
57
0
61
0
10
0
14
3
0
0
0
61
0
0
26
33
39
25
11
3
0
2
10
18
22
19
0
58
0
50
0
0
0
0
12
0
0
3
33
26
61
0
0
3
1
18
20
0
22
26
53
2
53
0
14
11
16
49
0
0
0
0
0
0
54
0
53
0
0
0
20
9
29
12
0
0
4
0
49
33
33
23
0
14
0
0
0
0
7
24
0
0
0
54
0
0
0
0
0
58
23
0
0
0
24
54
6
62
13
14
4
4
84
10
1
54
10
0
0
56
4
42
42
28
0
0
0
5
1
60
12
8
1
3
0
19
28
25
22
14
9
56
12
15
28
9
7
10
0
60
0
0
0
0
62
6
0
55
6
0
7
1
5
2
3
1
3
65
7
52
37
53
7
15
15
8
25
19
60
11
3
24
17
14
20
3
26
12
1
7
6
0
15
0
5
0
53
2
23
6
12
4
1
4
30
20
51
28
21
0
13
0
0
0
11
18
0
23
1
22
1
1
57
4
0
0
54
3
0
2
19
4
25
53
44
9
9
20
2
23
13
8
0
1
0
0
0
3
65
5
0
31
6
11
0
0
2
8
3
13
57
0
19
9
3
21
2
22
20
53
8
20
54
0
1
0
3
62
34
19
10
3
20
10
39
51
2
61
17
10
56
